   i     radius            mass              density           energy            temp              abar              zbar
    1  6.9599699824E+04  2.4124914917E-11  3.3980790746E+07  2.8906743974E+17  1.0000000000E+07  1.3714285714E+01  6.8571428571E+00
    2  8.0686234859E+04  3.7587376942E-11  3.3980789370E+07  2.8906743409E+17  1.0000000000E+07  1.3714285714E+01  6.8571428571E+00
    3  9.6413305543E+04  6.4129013955E-11  3.3980787070E+07  2.8906742465E+17  1.0000000000E+07  1.3714285714E+01  6.8571428571E+00
    4  1.1359418169E+05  1.0488463666E-10  3.3980784090E+07  2.8906741243E+17  1.0000000000E+07  1.3714285714E+01  6.8571428571E+00
    5  1.3271503273E+05  1.6726456258E-10  3.3980780201E+07  2.8906739648E+17  1.0000000000E+07  1.3714285714E+01  6.8571428571E+00
    6  1.5381473573E+05  2.6039783837E-10  3.3980775209E+07  2.8906737600E+17  1.0000000000E+07  1.3714285714E+01  6.8571428571E+00
    7  1.7698094524E+05  3.9666421749E-10  3.3980768881E+07  2.8906735003E+17  1.0000000000E+07  1.3714285714E+01  6.8571428571E+00
    8  2.0229333747E+05  5.9236333752E-10  3.3980760953E+07  2.8906731751E+17  1.0000000000E+07  1.3714285714E+01  6.8571428571E+00
    9  2.2983080761E+05  8.6869652954E-10  3.3980751127E+07  2.8906727720E+17  1.0000000000E+07  1.3714285714E+01  6.8571428571E+00
   10  2.5967023609E+05  1.2528808833E-09  3.3980739065E+07  2.8906722772E+17  1.0000000000E+07  1.3714285714E+01  6.8571428571E+00
   11  2.9188647420E+05  1.7794470250E-09  3.3980724392E+07  2.8906716752E+17  1.0000000000E+07  1.3714285714E+01  6.8571428571E+00
   12  3.2655135566E+05  2.4917099641E-09  3.3980706689E+07  2.8906709489E+17  1.0000000000E+07  1.3714285714E+01  6.8571428571E+00
   13  3.6373837209E+05  3.4435802591E-09  3.3980685492E+07  2.8906700793E+17  1.0000000000E+07  1.3714285714E+01  6.8571428571E+00
   14  4.0351769335E+05  4.7014346823E-09  3.3980660289E+07  2.8906690453E+17  1.0000000000E+07  1.3714285714E+01  6.8571428571E+00
   15  4.4595807065E+05  6.3463572408E-09  3.3980630518E+07  2.8906678240E+17  1.0000000000E+07  1.3714285714E+01  6.8571428571E+00
   16  4.9112722356E+05  8.4766487523E-09  3.3980595566E+07  2.8906663901E+17  1.0000000000E+07  1.3714285714E+01  6.8571428571E+00
   17  5.3909132318E+05  1.1210600488E-08  3.3980554762E+07  2.8906647161E+17  1.0000000000E+07  1.3714285714E+01  6.8571428571E+00
   18  5.8991545238E+05  1.4689628211E-08  3.3980507379E+07  2.8906627722E+17  1.0000000000E+07  1.3714285714E+01  6.8571428571E+00
   19  6.4366409584E+05  1.9081781593E-08  3.3980452628E+07  2.8906605260E+17  1.0000000000E+07  1.3714285714E+01  6.8571428571E+00
   20  7.0040002649E+05  2.4585500048E-08  3.3980389658E+07  2.8906579427E+17  1.0000000000E+07  1.3714285714E+01  6.8571428571E+00
   21  7.6018537275E+05  3.1433921031E-08  3.3980317551E+07  2.8906549845E+17  1.0000000000E+07  1.3714285714E+01  6.8571428571E+00
   22  8.2308194223E+05  3.9899607362E-08  3.3980235321E+07  2.8906516109E+17  1.0000000000E+07  1.3714285714E+01  6.8571428571E+00
   23  8.8914962309E+05  5.0299449350E-08  3.3980141909E+07  2.8906477787E+17  1.0000000000E+07  1.3714285714E+01  6.8571428571E+00
   24  9.5844703408E+05  6.3000243370E-08  3.3980036185E+07  2.8906434413E+17  1.0000000000E+07  1.3714285714E+01  6.8571428571E+00
   25  1.0310318598E+06  7.8424763214E-08  3.3979916942E+07  2.8906385493E+17  1.0000000000E+07  1.3714285714E+01  6.8571428571E+00
   26  1.1069611171E+06  9.7058378145E-08  3.3979782894E+07  2.8906330498E+17  1.0000000000E+07  1.3714285714E+01  6.8571428571E+00
   27  1.1862925138E+06  1.1945659974E-07  3.3979632670E+07  2.8906268868E+17  1.0000000000E+07  1.3714285714E+01  6.8571428571E+00
   28  1.2690813144E+06  1.4625200929E-07  3.3979464816E+07  2.8906200004E+17  1.0000000000E+07  1.3714285714E+01  6.8571428571E+00
   29  1.3553827128E+06  1.7816315072E-07  3.3979277793E+07  2.8906123276E+17  1.0000000000E+07  1.3714285714E+01  6.8571428571E+00
   30  1.4452501739E+06  2.1600288669E-07  3.3979069970E+07  2.8906038014E+17  1.0000000000E+07  1.3714285714E+01  6.8571428571E+00
   31  1.5387384084E+06  2.6068922486E-07  3.3978839621E+07  2.8905943511E+17  1.0000000000E+07  1.3714285714E+01  6.8571428571E+00
   32  1.6358998449E+06  3.1325418245E-07  3.3978584929E+07  2.8905839019E+17  1.0000000000E+07  1.3714285714E+01  6.8571428571E+00
   33  1.7367865836E+06  3.7485555992E-07  3.3978303976E+07  2.8905723753E+17  1.0000000000E+07  1.3714285714E+01  6.8571428571E+00
   34  1.8414509239E+06  4.4678919902E-07  3.3977994742E+07  2.8905596884E+17  1.0000000000E+07  1.3714285714E+01  6.8571428571E+00
   35  1.9499434229E+06  5.3050031439E-07  3.3977655107E+07  2.8905457542E+17  1.0000000000E+07  1.3714285714E+01  6.8571428571E+00
   36  2.0623150540E+06  6.2759835228E-07  3.3977282841E+07  2.8905304811E+17  1.0000000000E+07  1.3714285714E+01  6.8571428571E+00
   37  2.1786148002E+06  7.3986926168E-07  3.3976875609E+07  2.8905137733E+17  1.0000000000E+07  1.3714285714E+01  6.8571428571E+00
   38  2.2988926856E+06  8.6929327744E-07  3.3976430960E+07  2.8904955302E+17  1.0000000000E+07  1.3714285714E+01  6.8571428571E+00
   39  2.4231975762E+06  1.0180590914E-06  3.3975946329E+07  2.8904756466E+17  1.0000000000E+07  1.3714285714E+01  6.8571428571E+00
   40  2.5515785806E+06  1.1885824355E-06  3.3975419033E+07  2.8904540123E+17  1.0000000000E+07  1.3714285714E+01  6.8571428571E+00
   41  2.6840826661E+06  1.3835209317E-06  3.3974846273E+07  2.8904305125E+17  1.0000000000E+07  1.3714285714E+01  6.8571428571E+00
   42  2.8207567951E+06  1.6057955017E-06  3.3974225127E+07  2.8904050272E+17  1.0000000000E+07  1.3714285714E+01  6.8571428571E+00
   43  2.9616488827E+06  1.8586125192E-06  3.3973552542E+07  2.8903774310E+17  1.0000000000E+07  1.3714285714E+01  6.8571428571E+00
   44  3.1068041172E+06  2.1454786037E-06  3.3972825345E+07  2.8903475937E+17  1.0000000000E+07  1.3714285714E+01  6.8571428571E+00
   45  3.2562696992E+06  2.4702314895E-06  3.3972040222E+07  2.8903153793E+17  1.0000000000E+07  1.3714285714E+01  6.8571428571E+00
   46  3.4100906678E+06  2.8370555245E-06  3.3971193733E+07  2.8902806465E+17  1.0000000000E+07  1.3714285714E+01  6.8571428571E+00
   47  3.5683120620E+06  3.2505103243E-06  3.3970282301E+07  2.8902432483E+17  1.0000000000E+07  1.3714285714E+01  6.8571428571E+00
   48  3.7309791396E+06  3.7155577026E-06  3.3969302205E+07  2.8902030321E+17  1.0000000000E+07  1.3714285714E+01  6.8571428571E+00
   49  3.8981360001E+06  4.2375851104E-06  3.3968249587E+07  2.8901598393E+17  1.0000000000E+07  1.3714285714E+01  6.8571428571E+00
   50  4.0698265125E+06  4.8224363165E-06  3.3967120444E+07  2.8901135055E+17  1.0000000000E+07  1.3714285714E+01  6.8571428571E+00
   51  4.2460946232E+06  5.4764425304E-06  3.3965910623E+07  2.8900638600E+17  1.0000000000E+07  1.3714285714E+01  6.8571428571E+00
   52  4.4269826038E+06  6.2064468875E-06  3.3964615829E+07  2.8900107266E+17  1.0000000000E+07  1.3714285714E+01  6.8571428571E+00
   53  4.6125344568E+06  7.0198502502E-06  3.3963231603E+07  2.8899539218E+17  1.0000000000E+07  1.3714285714E+01  6.8571428571E+00
   54  4.8027922484E+06  7.9246308120E-06  3.3961753338E+07  2.8898932564E+17  1.0000000000E+07  1.3714285714E+01  6.8571428571E+00
   55  4.9977986152E+06  8.9293900191E-06  3.3960176266E+07  2.8898285344E+17  1.0000000000E+07  1.3714285714E+01  6.8571428571E+00
   56  5.1975940858E+06  1.0043375898E-05  3.3958495472E+07  2.8897595537E+17  1.0000000000E+07  1.3714285714E+01  6.8571428571E+00
   57  5.4022231673E+06  1.1276555701E-05  3.3956705841E+07  2.8896861041E+17  1.0000000000E+07  1.3714285714E+01  6.8571428571E+00
   58  5.6117253794E+06  1.2639605736E-05  3.3954802132E+07  2.8896079699E+17  1.0000000000E+07  1.3714285714E+01  6.8571428571E+00
   59  5.8261403727E+06  1.4143979034E-05  3.3952778933E+07  2.8895249287E+17  1.0000000000E+07  1.3714285714E+01  6.8571428571E+00
   60  6.0455109824E+06  1.5801973442E-05  3.3950630631E+07  2.8894367494E+17  1.0000000000E+07  1.3714285714E+01  6.8571428571E+00
   61  6.2698767133E+06  1.7626731743E-05  3.3948351467E+07  2.8893431950E+17  1.0000000000E+07  1.3714285714E+01  6.8571428571E+00
   62  6.4992771552E+06  1.9632310756E-05  3.3945935501E+07  2.8892440212E+17  1.0000000000E+07  1.3714285714E+01  6.8571428571E+00
   63  6.7337534501E+06  2.1833745229E-05  3.3943376598E+07  2.8891389753E+17  1.0000000000E+07  1.3714285714E+01  6.8571428571E+00
   64  6.9733439079E+06  2.4247058926E-05  3.3940668469E+07  2.8890277983E+17  1.0000000000E+07  1.3714285714E+01  6.8571428571E+00
   65  7.2180903375E+06  2.6889378753E-05  3.3937804598E+07  2.8889102219E+17  1.0000000000E+07  1.3714285714E+01  6.8571428571E+00
   66  7.4680288933E+06  2.9778893902E-05  3.3934778346E+07  2.8887859724E+17  1.0000000000E+07  1.3714285714E+01  6.8571428571E+00
   67  7.7231998136E+06  3.2935015325E-05  3.3931582836E+07  2.8886547665E+17  1.0000000000E+07  1.3714285714E+01  6.8571428571E+00
   68  7.9836409874E+06  3.6378363754E-05  3.3928211024E+07  2.8885163137E+17  1.0000000000E+07  1.3714285714E+01  6.8571428571E+00
   69  8.2493911210E+06  4.0130867079E-05  3.3924655663E+07  2.8883703151E+17  1.0000000000E+07  1.3714285714E+01  6.8571428571E+00
   70  8.5204891298E+06  4.4215817978E-05  3.3920909301E+07  2.8882164633E+17  1.0000000000E+07  1.3714285714E+01  6.8571428571E+00
   71  8.7969736364E+06  4.8657932408E-05  3.3916964288E+07  2.8880544425E+17  1.0000000000E+07  1.3714285714E+01  6.8571428571E+00
   72  9.0788811669E+06  5.3483384318E-05  3.3912812803E+07  2.8878839297E+17  1.0000000000E+07  1.3714285714E+01  6.8571428571E+00
   73  9.3662485660E+06  5.8719909473E-05  3.3908446814E+07  2.8877045933E+17  1.0000000000E+07  1.3714285714E+01  6.8571428571E+00
   74  9.6591152039E+06  6.4396922918E-05  3.3903858045E+07  2.8875160910E+17  1.0000000000E+07  1.3714285714E+01  6.8571428571E+00
   75  9.9575183767E+06  7.0545511112E-05  3.3899038038E+07  2.8873180733E+17  1.0000000000E+07  1.3714285714E+01  6.8571428571E+00
   76  1.0261492016E+07  7.7198467129E-05  3.3893978182E+07  2.8871101838E+17  1.0000000000E+07  1.3714285714E+01  6.8571428571E+00
   77  1.0571075240E+07  8.4390551253E-05  3.3888669564E+07  2.8868920538E+17  1.0000000000E+07  1.3714285714E+01  6.8571428571E+00
   78  1.0886304787E+07  9.2158415766E-05  3.3883103097E+07  2.8866633067E+17  1.0000000000E+07  1.3714285714E+01  6.8571428571E+00
   79  1.1207218217E+07  1.0054075843E-04  3.3877269456E+07  2.8864235564E+17  1.0000000000E+07  1.3714285714E+01  6.8571428571E+00
   80  1.1533849045E+07  1.0957827664E-04  3.3871159173E+07  2.8861724102E+17  1.0000000000E+07  1.3714285714E+01  6.8571428571E+00
   81  1.1866236609E+07  1.1931402059E-04  3.3864762449E+07  2.8859094616E+17  1.0000000000E+07  1.3714285714E+01  6.8571428571E+00
   82  1.2204415264E+07  1.2979318859E-04  3.3858069356E+07  2.8856342984E+17  1.0000000000E+07  1.3714285714E+01  6.8571428571E+00
   83  1.2548420367E+07  1.4106337941E-04  3.3851069722E+07  2.8853464980E+17  1.0000000000E+07  1.3714285714E+01  6.8571428571E+00
   84  1.2898289520E+07  1.5317474075E-04  3.3843753100E+07  2.8850456260E+17  1.0000000000E+07  1.3714285714E+01  6.8571428571E+00
   85  1.3254057848E+07  1.6617991243E-04  3.3836108865E+07  2.8847312405E+17  1.0000000000E+07  1.3714285714E+01  6.8571428571E+00
   86  1.3615759779E+07  1.8013417424E-04  3.3828126178E+07  2.8844028901E+17  1.0000000000E+07  1.3714285714E+01  6.8571428571E+00
   87  1.3983431596E+07  1.9509564827E-04  3.3819793927E+07  2.8840601116E+17  1.0000000000E+07  1.3714285714E+01  6.8571428571E+00
   88  1.4357109005E+07  2.1112531825E-04  3.3811100780E+07  2.8837024325E+17  1.0000000000E+07  1.3714285714E+01  6.8571428571E+00
   89  1.4736825762E+07  2.2828706907E-04  3.3802035213E+07  2.8833293715E+17  1.0000000000E+07  1.3714285714E+01  6.8571428571E+00
   90  1.5122617980E+07  2.4664798540E-04  3.3792585413E+07  2.8829404350E+17  1.0000000000E+07  1.3714285714E+01  6.8571428571E+00
   91  1.5514521179E+07  2.6627834285E-04  3.3782739341E+07  2.8825351195E+17  1.0000000000E+07  1.3714285714E+01  6.8571428571E+00
   92  1.5912569654E+07  2.8725168452E-04  3.3772484751E+07  2.8821129121E+17  1.0000000000E+07  1.3714285714E+01  6.8571428571E+00
   93  1.6316798194E+07  3.0964502167E-04  3.3761809145E+07  2.8816732889E+17  1.0000000000E+07  1.3714285714E+01  6.8571428571E+00
   94  1.6727242736E+07  3.3353900162E-04  3.3750699755E+07  2.8812157140E+17  1.0000000000E+07  1.3714285714E+01  6.8571428571E+00
   95  1.7143938354E+07  3.5901792429E-04  3.3739143589E+07  2.8807396417E+17  1.0000000000E+07  1.3714285714E+01  6.8571428571E+00
   96  1.7566918472E+07  3.8616980600E-04  3.3727127464E+07  2.8802445172E+17  1.0000000000E+07  1.3714285714E+01  6.8571428571E+00
   97  1.7996217784E+07  4.1508668523E-04  3.3714637917E+07  2.8797297735E+17  1.0000000000E+07  1.3714285714E+01  6.8571428571E+00
   98  1.8431870928E+07  4.4586468005E-04  3.3701661245E+07  2.8791948326E+17  1.0000000000E+07  1.3714285714E+01  6.8571428571E+00
   99  1.8873912041E+07  4.7860408939E-04  3.3688183516E+07  2.8786391059E+17  1.0000000000E+07  1.3714285714E+01  6.8571428571E+00
  100  1.9322374485E+07  5.1340950068E-04  3.3674190580E+07  2.8780619950E+17  1.0000000000E+07  1.3714285714E+01  6.8571428571E+00
  101  1.9777294384E+07  5.5039021087E-04  3.3659667958E+07  2.8774628865E+17  1.0000000000E+07  1.3714285714E+01  6.8571428571E+00
  102  2.0238705703E+07  5.8965999341E-04  3.3644600993E+07  2.8768411585E+17  1.0000000000E+07  1.3714285714E+01  6.8571428571E+00
  103  2.0706642134E+07  6.3133737630E-04  3.3628974795E+07  2.8761961781E+17  1.0000000000E+07  1.3714285714E+01  6.8571428571E+00
  104  2.1181141043E+07  6.7554616033E-04  3.3612774105E+07  2.8755272959E+17  1.0000000000E+07  1.3714285714E+01  6.8571428571E+00
  105  2.1662234261E+07  7.2241473235E-04  3.3595983609E+07  2.8748338587E+17  1.0000000000E+07  1.3714285714E+01  6.8571428571E+00
  106  2.2149958306E+07  7.7207716426E-04  3.3578587590E+07  2.8741151950E+17  1.0000000000E+07  1.3714285714E+01  6.8571428571E+00
  107  2.2644347165E+07  8.2467268969E-04  3.3560570173E+07  2.8733706254E+17  1.0000000000E+07  1.3714285714E+01  6.8571428571E+00
  108  2.3145434842E+07  8.8034609532E-04  3.3541915246E+07  2.8725994586E+17  1.0000000000E+07  1.3714285714E+01  6.8571428571E+00
  109  2.3653254310E+07  9.3924775875E-04  3.3522606497E+07  2.8718009936E+17  1.0000000000E+07  1.3714285714E+01  6.8571428571E+00
  110  2.4167834946E+07  1.0015334682E-03  3.3502627522E+07  2.8709745234E+17  1.0000000000E+07  1.3714285714E+01  6.8571428571E+00
  111  2.4689217582E+07  1.0673664314E-03  3.3481961237E+07  2.8701193110E+17  1.0000000000E+07  1.3714285714E+01  6.8571428571E+00
  112  2.5217436588E+07  1.1369153423E-03  3.3460590568E+07  2.8692346177E+17  1.0000000000E+07  1.3714285714E+01  6.8571428571E+00
  113  2.5752527744E+07  1.2103554820E-03  3.3438498147E+07  2.8683196903E+17  1.0000000000E+07  1.3714285714E+01  6.8571428571E+00
  114  2.6294523559E+07  1.2878682504E-03  3.3415666512E+07  2.8673737694E+17  1.0000000000E+07  1.3714285714E+01  6.8571428571E+00
  115  2.6843461637E+07  1.3696425170E-03  3.3392077756E+07  2.8663960747E+17  1.0000000000E+07  1.3714285714E+01  6.8571428571E+00
  116  2.7399375793E+07  1.4558735466E-03  3.3367713904E+07  2.8653858206E+17  1.0000000000E+07  1.3714285714E+01  6.8571428571E+00
  117  2.7962316199E+07  1.5467663804E-03  3.3342556023E+07  2.8643421787E+17  1.0000000000E+07  1.3714285714E+01  6.8571428571E+00
  118  2.8532304571E+07  1.6425288810E-03  3.3316586211E+07  2.8632643610E+17  1.0000000000E+07  1.3714285714E+01  6.8571428571E+00
  119  2.9109375511E+07  1.7433783392E-03  3.3289785792E+07  2.8621515439E+17  1.0000000000E+07  1.3714285714E+01  6.8571428571E+00
  120  2.9693566103E+07  1.8495401575E-03  3.3262135757E+07  2.8610028873E+17  1.0000000000E+07  1.3714285714E+01  6.8571428571E+00
  121  3.0284910963E+07  1.9612471745E-03  3.3233616999E+07  2.8598175433E+17  1.0000000000E+07  1.3714285714E+01  6.8571428571E+00
  122  3.0883448892E+07  2.0787410943E-03  3.3204209998E+07  2.8585946436E+17  1.0000000000E+07  1.3714285714E+01  6.8571428571E+00
  123  3.1489213785E+07  2.2022709468E-03  3.3173895265E+07  2.8573333176E+17  1.0000000000E+07  1.3714285714E+01  6.8571428571E+00
  124  3.2102242297E+07  2.3320947444E-03  3.3142652974E+07  2.8560326770E+17  1.0000000000E+07  1.3714285714E+01  6.8571428571E+00
  125  3.2722569790E+07  2.4684788751E-03  3.3110463172E+07  2.8546918238E+17  1.0000000000E+07  1.3714285714E+01  6.8571428571E+00
  126  3.3350233730E+07  2.6116990322E-03  3.3077305602E+07  2.8533098438E+17  1.0000000000E+07  1.3714285714E+01  6.8571428571E+00
  127  3.3985272790E+07  2.7620402808E-03  3.3043159752E+07  2.8518858074E+17  1.0000000000E+07  1.3714285714E+01  6.8571428571E+00
  128  3.4627724058E+07  2.9197966111E-03  3.3008005006E+07  2.8504187763E+17  1.0000000000E+07  1.3714285714E+01  6.8571428571E+00
  129  3.5277624964E+07  3.0852715654E-03  3.2971820556E+07  2.8489077994E+17  1.0000000000E+07  1.3714285714E+01  6.8571428571E+00
  130  3.5935013956E+07  3.2587786318E-03  3.2934585360E+07  2.8473519110E+17  1.0000000000E+07  1.3714285714E+01  6.8571428571E+00
  131  3.6599927542E+07  3.4406406679E-03  3.2896278323E+07  2.8457501378E+17  1.0000000000E+07  1.3714285714E+01  6.8571428571E+00
  132  3.7272402417E+07  3.6311906151E-03  3.2856878182E+07  2.8441014945E+17  1.0000000000E+07  1.3714285714E+01  6.8571428571E+00
  133  3.7952481245E+07  3.8307734283E-03  3.2816363172E+07  2.8424049687E+17  1.0000000000E+07  1.3714285714E+01  6.8571428571E+00
  134  3.8640202190E+07  4.0397433451E-03  3.2774711638E+07  2.8406595472E+17  1.0000000000E+07  1.3714285714E+01  6.8571428571E+00
  135  3.9335605191E+07  4.2584658594E-03  3.2731901682E+07  2.8388642001E+17  1.0000000000E+07  1.3714285714E+01  6.8571428571E+00
  136  4.0038730593E+07  4.4873175567E-03  3.2687911243E+07  2.8370178845E+17  1.0000000000E+07  1.3714285714E+01  6.8571428571E+00
  137  4.0749618342E+07  4.7266860614E-03  3.2642718162E+07  2.8351195469E+17  1.0000000000E+07  1.3714285714E+01  6.8571428571E+00
  138  4.1468308979E+07  4.9769705591E-03  3.2596300124E+07  2.8331681200E+17  1.0000000000E+07  1.3714285714E+01  6.8571428571E+00
  139  4.2194844828E+07  5.2385824585E-03  3.2548634590E+07  2.8311625202E+17  1.0000000000E+07  1.3714285714E+01  6.8571428571E+00
  140  4.2929266570E+07  5.5119443977E-03  3.2499699027E+07  2.8291016566E+17  1.0000000000E+07  1.3714285714E+01  6.8571428571E+00
  141  4.3671617565E+07  5.7974920199E-03  3.2449470633E+07  2.8269844190E+17  1.0000000000E+07  1.3714285714E+01  6.8571428571E+00
  142  4.4421938757E+07  6.0956722773E-03  3.2397926686E+07  2.8248096927E+17  1.0000000000E+07  1.3714285714E+01  6.8571428571E+00
  143  4.5180275783E+07  6.4069464219E-03  3.2345044073E+07  2.8225763381E+17  1.0000000000E+07  1.3714285714E+01  6.8571428571E+00
  144  4.5946675177E+07  6.7317888682E-03  3.2290799543E+07  2.8202832008E+17  1.0000000000E+07  1.3714285714E+01  6.8571428571E+00
  145  4.6721178034E+07  7.0706846261E-03  3.2235170179E+07  2.8179291315E+17  1.0000000000E+07  1.3714285714E+01  6.8571428571E+00
  146  4.7503829923E+07  7.4241336473E-03  3.2178132707E+07  2.8155129565E+17  1.0000000000E+07  1.3714285714E+01  6.8571428571E+00
  147  4.8294679273E+07  7.7926505489E-03  3.2119663612E+07  2.8130334820E+17  1.0000000000E+07  1.3714285714E+01  6.8571428571E+00
  148  4.9093771506E+07  8.1767621357E-03  3.2059739576E+07  2.8104895122E+17  1.0000000000E+07  1.3714285714E+01  6.8571428571E+00
  149  4.9901153916E+07  8.5770097995E-03  3.1998337135E+07  2.8078798349E+17  1.0000000000E+07  1.3714285714E+01  6.8571428571E+00
  150  5.0716875296E+07  8.9939496317E-03  3.1935432720E+07  2.8052032221E+17  1.0000000000E+07  1.3714285714E+01  6.8571428571E+00
