   i     radius            mass              density           energy            temp              abar              zbar
    1  6.9599699824E+04  7.9728457913E-13  1.1230034696E+06  4.3842153435E+16  1.0000000000E+07  1.3714285714E+01  6.8571428571E+00
    2  8.7379354183E+04  1.5776757536E-12  1.1230034581E+06  4.3842153156E+16  1.0000000000E+07  1.3714285714E+01  6.8571428571E+00
    3  1.1031472576E+05  3.1746198184E-12  1.1230034394E+06  4.3842152703E+16  1.0000000000E+07  1.3714285714E+01  6.8571428571E+00
    4  1.3660348124E+05  6.0280458748E-12  1.1230034126E+06  4.3842152054E+16  1.0000000000E+07  1.3714285714E+01  6.8571428571E+00
    5  1.6684145684E+05  1.0982549221E-11  1.1230033747E+06  4.3842151137E+16  1.0000000000E+07  1.3714285714E+01  6.8571428571E+00
    6  2.0122353220E+05  1.9267595953E-11  1.1230033225E+06  4.3842149872E+16  1.0000000000E+07  1.3714285714E+01  6.8571428571E+00
    7  2.3998426517E+05  3.2684324409E-11  1.1230032520E+06  4.3842148162E+16  1.0000000000E+07  1.3714285714E+01  6.8571428571E+00
    8  2.8336138117E+05  5.3803827274E-11  1.1230031583E+06  4.3842145893E+16  1.0000000000E+07  1.3714285714E+01  6.8571428571E+00
    9  3.3157925628E+05  8.6209121323E-11  1.1230030360E+06  4.3842142929E+16  1.0000000000E+07  1.3714285714E+01  6.8571428571E+00
   10  3.8485716052E+05  1.3479998276E-10  1.1230028785E+06  4.3842139113E+16  1.0000000000E+07  1.3714285714E+01  6.8571428571E+00
   11  4.4340779694E+05  2.0615840850E-10  1.1230026784E+06  4.3842134265E+16  1.0000000000E+07  1.3714285714E+01  6.8571428571E+00
   12  5.0743887430E+05  3.0898843371E-10  1.1230024272E+06  4.3842128178E+16  1.0000000000E+07  1.3714285714E+01  6.8571428571E+00
   13  5.7715408432E+05  4.5463855815E-10  1.1230021153E+06  4.3842120619E+16  1.0000000000E+07  1.3714285714E+01  6.8571428571E+00
   14  6.5275067976E+05  6.5770759184E-10  1.1230017317E+06  4.3842111325E+16  1.0000000000E+07  1.3714285714E+01  6.8571428571E+00
   15  7.3442213520E+05  9.3675931798E-10  1.1230012642E+06  4.3842099999E+16  1.0000000000E+07  1.3714285714E+01  6.8571428571E+00
   16  8.2236494144E+05  1.3151775276E-09  1.1230006994E+06  4.3842086313E+16  1.0000000000E+07  1.3714285714E+01  6.8571428571E+00
   17  9.1675937078E+05  1.8220342377E-09  1.1230000221E+06  4.3842069901E+16  1.0000000000E+07  1.3714285714E+01  6.8571428571E+00
   18  1.0177869445E+06  2.4932217109E-09  1.1229992158E+06  4.3842050363E+16  1.0000000000E+07  1.3714285714E+01  6.8571428571E+00
   19  1.1256261156E+06  3.3726597785E-09  1.1229982621E+06  4.3842027256E+16  1.0000000000E+07  1.3714285714E+01  6.8571428571E+00
   20  1.2404513277E+06  4.5136613964E-09  1.1229971412E+06  4.3842000096E+16  1.0000000000E+07  1.3714285714E+01  6.8571428571E+00
   21  1.3624333498E+06  5.9804695695E-09  1.1229958313E+06  4.3841968356E+16  1.0000000000E+07  1.3714285714E+01  6.8571428571E+00
   22  1.4917415673E+06  7.8500045545E-09  1.1229943087E+06  4.3841931461E+16  1.0000000000E+07  1.3714285714E+01  6.8571428571E+00
   23  1.6285412587E+06  1.0213745282E-08  1.1229925476E+06  4.3841888789E+16  1.0000000000E+07  1.3714285714E+01  6.8571428571E+00
   24  1.7729949007E+06  1.3179857502E-08  1.1229905204E+06  4.3841839669E+16  1.0000000000E+07  1.3714285714E+01  6.8571428571E+00
   25  1.9252625257E+06  1.6875536507E-08  1.1229881971E+06  4.3841783374E+16  1.0000000000E+07  1.3714285714E+01  6.8571428571E+00
   26  2.0854968445E+06  2.1449427847E-08  1.1229855457E+06  4.3841719129E+16  1.0000000000E+07  1.3714285714E+01  6.8571428571E+00
   27  2.2538524777E+06  2.7074650634E-08  1.1229825317E+06  4.3841646097E+16  1.0000000000E+07  1.3714285714E+01  6.8571428571E+00
   28  2.4304852724E+06  3.3951939693E-08  1.1229791181E+06  4.3841563384E+16  1.0000000000E+07  1.3714285714E+01  6.8571428571E+00
   29  2.6155450752E+06  4.2312758775E-08  1.1229752656E+06  4.3841470033E+16  1.0000000000E+07  1.3714285714E+01  6.8571428571E+00
   30  2.8091803737E+06  5.2423086424E-08  1.1229709319E+06  4.3841365026E+16  1.0000000000E+07  1.3714285714E+01  6.8571428571E+00
   31  3.0115363936E+06  6.4587270287E-08  1.1229660726E+06  4.3841247279E+16  1.0000000000E+07  1.3714285714E+01  6.8571428571E+00
   32  3.2227574450E+06  7.9152417316E-08  1.1229606400E+06  4.3841115642E+16  1.0000000000E+07  1.3714285714E+01  6.8571428571E+00
   33  3.4429844684E+06  9.6512842597E-08  1.1229545838E+06  4.3840968895E+16  1.0000000000E+07  1.3714285714E+01  6.8571428571E+00
   34  3.6723586076E+06  1.1711529186E-07  1.1229478506E+06  4.3840805743E+16  1.0000000000E+07  1.3714285714E+01  6.8571428571E+00
   35  3.9110180335E+06  1.4146404655E-07  1.1229403841E+06  4.3840624822E+16  1.0000000000E+07  1.3714285714E+01  6.8571428571E+00
   36  4.1590984908E+06  1.7012663800E-07  1.1229321248E+06  4.3840424689E+16  1.0000000000E+07  1.3714285714E+01  6.8571428571E+00
   37  4.4167351594E+06  2.0374017043E-07  1.1229230099E+06  4.3840203823E+16  1.0000000000E+07  1.3714285714E+01  6.8571428571E+00
   38  4.6840608241E+06  2.4301766206E-07  1.1229129733E+06  4.3839960624E+16  1.0000000000E+07  1.3714285714E+01  6.8571428571E+00
   39  4.9612073863E+06  2.8875522173E-07  1.1229019456E+06  4.3839693407E+16  1.0000000000E+07  1.3714285714E+01  6.8571428571E+00
   40  5.2483044843E+06  3.4183927981E-07  1.1228898539E+06  4.3839400405E+16  1.0000000000E+07  1.3714285714E+01  6.8571428571E+00
   41  5.5454813497E+06  4.0325482472E-07  1.1228766215E+06  4.3839079761E+16  1.0000000000E+07  1.3714285714E+01  6.8571428571E+00
   42  5.8528654325E+06  4.7409359517E-07  1.1228621681E+06  4.3838729531E+16  1.0000000000E+07  1.3714285714E+01  6.8571428571E+00
   43  6.1705819379E+06  5.5556283438E-07  1.1228464099E+06  4.3838347678E+16  1.0000000000E+07  1.3714285714E+01  6.8571428571E+00
   44  6.4987556250E+06  6.4899515256E-07  1.1228292589E+06  4.3837932074E+16  1.0000000000E+07  1.3714285714E+01  6.8571428571E+00
   45  6.8375095338E+06  7.5585822605E-07  1.1228106233E+06  4.3837480491E+16  1.0000000000E+07  1.3714285714E+01  6.8571428571E+00
   46  7.1869667510E+06  8.7776593955E-07  1.1227904072E+06  4.3836990606E+16  1.0000000000E+07  1.3714285714E+01  6.8571428571E+00
   47  7.5472462281E+06  1.0164880866E-06  1.1227685107E+06  4.3836459997E+16  1.0000000000E+07  1.3714285714E+01  6.8571428571E+00
   48  7.9184690599E+06  1.1739643595E-06  1.1227448296E+06  4.3835886135E+16  1.0000000000E+07  1.3714285714E+01  6.8571428571E+00
   49  8.3007526755E+06  1.3523145684E-06  1.1227192553E+06  4.3835266390E+16  1.0000000000E+07  1.3714285714E+01  6.8571428571E+00
   50  8.6942151649E+06  1.5538534455E-06  1.1226916748E+06  4.3834598025E+16  1.0000000000E+07  1.3714285714E+01  6.8571428571E+00
   51  9.0989722801E+06  1.7811029996E-06  1.1226619709E+06  4.3833878192E+16  1.0000000000E+07  1.3714285714E+01  6.8571428571E+00
   52  9.5151386863E+06  2.0368073880E-06  1.1226300216E+06  4.3833103935E+16  1.0000000000E+07  1.3714285714E+01  6.8571428571E+00
   53  9.9428304273E+06  2.3239497079E-06  1.1225957000E+06  4.3832272179E+16  1.0000000000E+07  1.3714285714E+01  6.8571428571E+00
   54  1.0382159145E+07  2.6457641345E-06  1.1225588748E+06  4.3831379739E+16  1.0000000000E+07  1.3714285714E+01  6.8571428571E+00
   55  1.0833238108E+07  3.0057564326E-06  1.1225194098E+06  4.3830423309E+16  1.0000000000E+07  1.3714285714E+01  6.8571428571E+00
   56  1.1296177600E+07  3.4077179960E-06  1.1224771638E+06  4.3829399465E+16  1.0000000000E+07  1.3714285714E+01  6.8571428571E+00
   57  1.1771088047E+07  3.8557463006E-06  1.1224319905E+06  4.3828304660E+16  1.0000000000E+07  1.3714285714E+01  6.8571428571E+00
   58  1.2258079558E+07  4.3542637449E-06  1.1223837385E+06  4.3827135220E+16  1.0000000000E+07  1.3714285714E+01  6.8571428571E+00
   59  1.2757259334E+07  4.9080346902E-06  1.1223322516E+06  4.3825887352E+16  1.0000000000E+07  1.3714285714E+01  6.8571428571E+00
   60  1.3268737355E+07  5.5221922481E-06  1.1222773675E+06  4.3824557123E+16  1.0000000000E+07  1.3714285714E+01  6.8571428571E+00
   61  1.3792619213E+07  6.2022518579E-06  1.1222189192E+06  4.3823140477E+16  1.0000000000E+07  1.3714285714E+01  6.8571428571E+00
   62  1.4329010734E+07  6.9541386316E-06  1.1221567341E+06  4.3821633224E+16  1.0000000000E+07  1.3714285714E+01  6.8571428571E+00
   63  1.4878017723E+07  7.7842107733E-06  1.1220906339E+06  4.3820031037E+16  1.0000000000E+07  1.3714285714E+01  6.8571428571E+00
   64  1.5439743631E+07  8.6992803103E-06  1.1220204349E+06  4.3818329455E+16  1.0000000000E+07  1.3714285714E+01  6.8571428571E+00
   65  1.6014293487E+07  9.7066444681E-06  1.1219459474E+06  4.3816523871E+16  1.0000000000E+07  1.3714285714E+01  6.8571428571E+00
   66  1.6601770390E+07  1.0814106479E-05  1.1218669759E+06  4.3814609540E+16  1.0000000000E+07  1.3714285714E+01  6.8571428571E+00
   67  1.7202277322E+07  1.2030005800E-05  1.1217833192E+06  4.3812581569E+16  1.0000000000E+07  1.3714285714E+01  6.8571428571E+00
   68  1.7815915032E+07  1.3363242001E-05  1.1216947700E+06  4.3810434928E+16  1.0000000000E+07  1.3714285714E+01  6.8571428571E+00
   69  1.8442783201E+07  1.4823305633E-05  1.1216011153E+06  4.3808164436E+16  1.0000000000E+07  1.3714285714E+01  6.8571428571E+00
   70  1.9082984373E+07  1.6420318251E-05  1.1215021353E+06  4.3805764753E+16  1.0000000000E+07  1.3714285714E+01  6.8571428571E+00
   71  1.9736616816E+07  1.8165047141E-05  1.1213976045E+06  4.3803230397E+16  1.0000000000E+07  1.3714285714E+01  6.8571428571E+00
   72  2.0403779210E+07  2.0068948391E-05  1.1212872911E+06  4.3800555729E+16  1.0000000000E+07  1.3714285714E+01  6.8571428571E+00
   73  2.1084574790E+07  2.2144214457E-05  1.1211709558E+06  4.3797734932E+16  1.0000000000E+07  1.3714285714E+01  6.8571428571E+00
   74  2.1779096095E+07  2.4403763057E-05  1.1210483548E+06  4.3794762071E+16  1.0000000000E+07  1.3714285714E+01  6.8571428571E+00
   75  2.2487443230E+07  2.6861327830E-05  1.1209192362E+06  4.3791631018E+16  1.0000000000E+07  1.3714285714E+01  6.8571428571E+00
   76  2.3209711668E+07  2.9531457806E-05  1.1207833422E+06  4.3788335497E+16  1.0000000000E+07  1.3714285714E+01  6.8571428571E+00
   77  2.3945997466E+07  3.2429572220E-05  1.1206404082E+06  4.3784869063E+16  1.0000000000E+07  1.3714285714E+01  6.8571428571E+00
   78  2.4696395020E+07  3.5571991650E-05  1.1204901629E+06  4.3781225112E+16  1.0000000000E+07  1.3714285714E+01  6.8571428571E+00
   79  2.5461002040E+07  3.8976000078E-05  1.1203323277E+06  4.3777396849E+16  1.0000000000E+07  1.3714285714E+01  6.8571428571E+00
   80  2.6239910799E+07  4.2659849543E-05  1.1201666177E+06  4.3773377335E+16  1.0000000000E+07  1.3714285714E+01  6.8571428571E+00
   81  2.7033215437E+07  4.6642834189E-05  1.1199927407E+06  4.3769159444E+16  1.0000000000E+07  1.3714285714E+01  6.8571428571E+00
   82  2.7841010716E+07  5.0945331417E-05  1.1198103973E+06  4.3764735871E+16  1.0000000000E+07  1.3714285714E+01  6.8571428571E+00
   83  2.8663390005E+07  5.5588837827E-05  1.1196192811E+06  4.3760099137E+16  1.0000000000E+07  1.3714285714E+01  6.8571428571E+00
   84  2.9500444784E+07  6.0596012010E-05  1.1194190787E+06  4.3755241594E+16  1.0000000000E+07  1.3714285714E+01  6.8571428571E+00
   85  3.0352268399E+07  6.5990744957E-05  1.1192094691E+06  4.3750155400E+16  1.0000000000E+07  1.3714285714E+01  6.8571428571E+00
   86  3.1218953011E+07  7.1798193146E-05  1.1189901241E+06  4.3744832532E+16  1.0000000000E+07  1.3714285714E+01  6.8571428571E+00
   87  3.2100588107E+07  7.8044817606E-05  1.1187607085E+06  4.3739264800E+16  1.0000000000E+07  1.3714285714E+01  6.8571428571E+00
   88  3.2997265937E+07  8.4758473869E-05  1.1185208792E+06  4.3733443804E+16  1.0000000000E+07  1.3714285714E+01  6.8571428571E+00
   89  3.3909080104E+07  9.1968460984E-05  1.1182702847E+06  4.3727360947E+16  1.0000000000E+07  1.3714285714E+01  6.8571428571E+00
   90  3.4836115517E+07  9.9705494997E-05  1.1180085686E+06  4.3721007495E+16  1.0000000000E+07  1.3714285714E+01  6.8571428571E+00
   91  3.5778464789E+07  1.0800189519E-04  1.1177353643E+06  4.3714374470E+16  1.0000000000E+07  1.3714285714E+01  6.8571428571E+00
   92  3.6736216590E+07  1.1689155004E-04  1.1174502988E+06  4.3707452723E+16  1.0000000000E+07  1.3714285714E+01  6.8571428571E+00
   93  3.7709460715E+07  1.2641001923E-04  1.1171529909E+06  4.3700232900E+16  1.0000000000E+07  1.3714285714E+01  6.8571428571E+00
   94  3.8698286030E+07  1.3659457684E-04  1.1168430518E+06  4.3692705455E+16  1.0000000000E+07  1.3714285714E+01  6.8571428571E+00
   95  3.9702780076E+07  1.4748426805E-04  1.1165200850E+06  4.3684860649E+16  1.0000000000E+07  1.3714285714E+01  6.8571428571E+00
   96  4.0723032414E+07  1.5912000945E-04  1.1161836858E+06  4.3676688527E+16  1.0000000000E+07  1.3714285714E+01  6.8571428571E+00
   97  4.1759129365E+07  1.7154459663E-04  1.1158334423E+06  4.3668178954E+16  1.0000000000E+07  1.3714285714E+01  6.8571428571E+00
   98  4.2811160152E+07  1.8480284166E-04  1.1154689337E+06  4.3659321566E+16  1.0000000000E+07  1.3714285714E+01  6.8571428571E+00
   99  4.3879210890E+07  1.9894157001E-04  1.1150897321E+06  4.3650105816E+16  1.0000000000E+07  1.3714285714E+01  6.8571428571E+00
  100  4.4963371018E+07  2.1400977279E-04  1.1146954004E+06  4.3640520922E+16  1.0000000000E+07  1.3714285714E+01  6.8571428571E+00
  101  4.6063733189E+07  2.3005868879E-04  1.1142854922E+06  4.3630555859E+16  1.0000000000E+07  1.3714285714E+01  6.8571428571E+00
  102  4.7180380014E+07  2.4714168288E-04  1.1138595565E+06  4.3620199478E+16  1.0000000000E+07  1.3714285714E+01  6.8571428571E+00
  103  4.8313393635E+07  2.6531444211E-04  1.1134171344E+06  4.3609440427E+16  1.0000000000E+07  1.3714285714E+01  6.8571428571E+00
  104  4.9462864876E+07  2.8463520674E-04  1.1129577556E+06  4.3598267058E+16  1.0000000000E+07  1.3714285714E+01  6.8571428571E+00
  105  5.0628877711E+07  3.0516460271E-04  1.1124809443E+06  4.3586667571E+16  1.0000000000E+07  1.3714285714E+01  6.8571428571E+00
  106  5.1811523085E+07  3.2696595408E-04  1.1119862135E+06  4.3574629880E+16  1.0000000000E+07  1.3714285714E+01  6.8571428571E+00
  107  5.3010881615E+07  3.5010505255E-04  1.1114730724E+06  4.3562141785E+16  1.0000000000E+07  1.3714285714E+01  6.8571428571E+00
  108  5.4227040939E+07  3.7465055253E-04  1.1109410191E+06  4.3549190798E+16  1.0000000000E+07  1.3714285714E+01  6.8571428571E+00
  109  5.5460085730E+07  4.0067387070E-04  1.1103895445E+06  4.3535764238E+16  1.0000000000E+07  1.3714285714E+01  6.8571428571E+00
  110  5.6710103152E+07  4.2824938028E-04  1.1098181307E+06  4.3521849180E+16  1.0000000000E+07  1.3714285714E+01  6.8571428571E+00
  111  5.7977176100E+07  4.5745435041E-04  1.1092262530E+06  4.3507432522E+16  1.0000000000E+07  1.3714285714E+01  6.8571428571E+00
  112  5.9261390335E+07  4.8836918763E-04  1.1086133777E+06  4.3492500909E+16  1.0000000000E+07  1.3714285714E+01  6.8571428571E+00
  113  6.0562832503E+07  5.2107748858E-04  1.1079789624E+06  4.3477040750E+16  1.0000000000E+07  1.3714285714E+01  6.8571428571E+00
  114  6.1881588881E+07  5.5566610166E-04  1.1073224565E+06  4.3461038235E+16  1.0000000000E+07  1.3714285714E+01  6.8571428571E+00
  115  6.3217744723E+07  5.9222519858E-04  1.1066433021E+06  4.3444479338E+16  1.0000000000E+07  1.3714285714E+01  6.8571428571E+00
  116  6.4571384755E+07  6.3084837555E-04  1.1059409335E+06  4.3427349819E+16  1.0000000000E+07  1.3714285714E+01  6.8571428571E+00
  117  6.5942595166E+07  6.7163280439E-04  1.1052147759E+06  4.3409635187E+16  1.0000000000E+07  1.3714285714E+01  6.8571428571E+00
  118  6.7331460053E+07  7.1467922389E-04  1.1044642482E+06  4.3391320756E+16  1.0000000000E+07  1.3714285714E+01  6.8571428571E+00
  119  6.8738065392E+07  7.6009215321E-04  1.1036887600E+06  4.3372391588E+16  1.0000000000E+07  1.3714285714E+01  6.8571428571E+00
  120  7.0162498180E+07  8.0797997159E-04  1.1028877127E+06  4.3352832501E+16  1.0000000000E+07  1.3714285714E+01  6.8571428571E+00
  121  7.1604842357E+07  8.5845487783E-04  1.1020605014E+06  4.3332628129E+16  1.0000000000E+07  1.3714285714E+01  6.8571428571E+00
  122  7.3065186096E+07  9.1163323869E-04  1.1012065114E+06  4.3311762820E+16  1.0000000000E+07  1.3714285714E+01  6.8571428571E+00
  123  7.4543612516E+07  9.6763536021E-04  1.1003251230E+06  4.3290220762E+16  1.0000000000E+07  1.3714285714E+01  6.8571428571E+00
  124  7.6040209283E+07  1.0265859363E-03  1.0994157066E+06  4.3267985855E+16  1.0000000000E+07  1.3714285714E+01  6.8571428571E+00
  125  7.7555057134E+07  1.0886137053E-03  1.0984776292E+06  4.3245041872E+16  1.0000000000E+07  1.3714285714E+01  6.8571428571E+00
  126  7.9088249061E+07  1.1538523281E-03  1.0975102431E+06  4.3221372175E+16  1.0000000000E+07  1.3714285714E+01  6.8571428571E+00
  127  8.0639871188E+07  1.2224397289E-03  1.0965128974E+06  4.3196960001E+16  1.0000000000E+07  1.3714285714E+01  6.8571428571E+00
  128  8.2210012404E+07  1.2945185930E-03  1.0954849323E+06  4.3171788317E+16  1.0000000000E+07  1.3714285714E+01  6.8571428571E+00
  129  8.3798759694E+07  1.3702362672E-03  1.0944256823E+06  4.3145839890E+16  1.0000000000E+07  1.3714285714E+01  6.8571428571E+00
  130  8.5406201126E+07  1.4497449973E-03  1.0933344742E+06  4.3119097246E+16  1.0000000000E+07  1.3714285714E+01  6.8571428571E+00
  131  8.7032424072E+07  1.5332019495E-03  1.0922106286E+06  4.3091542695E+16  1.0000000000E+07  1.3714285714E+01  6.8571428571E+00
  132  8.8677518312E+07  1.6207694754E-03  1.0910534577E+06  4.3063158284E+16  1.0000000000E+07  1.3714285714E+01  6.8571428571E+00
  133  9.0341570921E+07  1.7126149531E-03  1.0898622695E+06  4.3033925880E+16  1.0000000000E+07  1.3714285714E+01  6.8571428571E+00
  134  9.2024676782E+07  1.8089114758E-03  1.0886363597E+06  4.3003826991E+16  1.0000000000E+07  1.3714285714E+01  6.8571428571E+00
  135  9.3726924245E+07  1.9098371718E-03  1.0873750226E+06  4.2972843015E+16  1.0000000000E+07  1.3714285714E+01  6.8571428571E+00
  136  9.5448401521E+07  2.0155756401E-03  1.0860775470E+06  4.2940955134E+16  1.0000000000E+07  1.3714285714E+01  6.8571428571E+00
  137  9.7189203968E+07  2.1263165233E-03  1.0847432102E+06  4.2908144178E+16  1.0000000000E+07  1.3714285714E+01  6.8571428571E+00
  138  9.8949420868E+07  2.2422548035E-03  1.0833712887E+06  4.2874390871E+16  1.0000000000E+07  1.3714285714E+01  6.8571428571E+00
  139  1.0072914391E+08  2.3635914253E-03  1.0819610518E+06  4.2839675675E+16  1.0000000000E+07  1.3714285714E+01  6.8571428571E+00
  140  1.0252846958E+08  2.4905335958E-03  1.0805117598E+06  4.2803978742E+16  1.0000000000E+07  1.3714285714E+01  6.8571428571E+00
  141  1.0434748969E+08  2.6232942398E-03  1.0790226718E+06  4.2767280104E+16  1.0000000000E+07  1.3714285714E+01  6.8571428571E+00
  142  1.0618630213E+08  2.7620928696E-03  1.0774930371E+06  4.2729559455E+16  1.0000000000E+07  1.3714285714E+01  6.8571428571E+00
  143  1.0804500013E+08  2.9071549080E-03  1.0759221044E+06  4.2690796373E+16  1.0000000000E+07  1.3714285714E+01  6.8571428571E+00
  144  1.0992368464E+08  3.0587127395E-03  1.0743091117E+06  4.2650970069E+16  1.0000000000E+07  1.3714285714E+01  6.8571428571E+00
  145  1.1182244727E+08  3.2170044658E-03  1.0726533011E+06  4.2610059742E+16  1.0000000000E+07  1.3714285714E+01  6.8571428571E+00
  146  1.1374139593E+08  3.3822761165E-03  1.0709538964E+06  4.2568044037E+16  1.0000000000E+07  1.3714285714E+01  6.8571428571E+00
  147  1.1568062268E+08  3.5547790626E-03  1.0692101323E+06  4.2524901740E+16  1.0000000000E+07  1.3714285714E+01  6.8571428571E+00
  148  1.1764023088E+08  3.7347724184E-03  1.0674212301E+06  4.2480611192E+16  1.0000000000E+07  1.3714285714E+01  6.8571428571E+00
  149  1.1962032548E+08  3.9225223533E-03  1.0655864068E+06  4.2435150497E+16  1.0000000000E+07  1.3714285714E+01  6.8571428571E+00
  150  1.2162100429E+08  4.1183013411E-03  1.0637048833E+06  4.2388497727E+16  1.0000000000E+07  1.3714285714E+01  6.8571428571E+00
