   i     radius            mass              density           energy            temp              abar              zbar
    1  6.9599699824E+04  1.0927619963E-12  1.5391938360E+06  5.3226768984E+16  1.0000000000E+07  1.3714285714E+01  6.8571428571E+00
    2  8.6726507424E+04  2.1142631928E-12  1.5391938184E+06  5.3226768613E+16  1.0000000000E+07  1.3714285714E+01  6.8571428571E+00
    3  1.0897559539E+05  4.1946064742E-12  1.5391937898E+06  5.3226768010E+16  1.0000000000E+07  1.3714285714E+01  6.8571428571E+00
    4  1.3436416023E+05  7.8623756606E-12  1.5391937493E+06  5.3226767154E+16  1.0000000000E+07  1.3714285714E+01  6.8571428571E+00
    5  1.6348336779E+05  1.4161986660E-11  1.5391936923E+06  5.3226765953E+16  1.0000000000E+07  1.3714285714E+01  6.8571428571E+00
    6  1.9650448885E+05  2.4593529905E-11  1.5391936142E+06  5.3226764307E+16  1.0000000000E+07  1.3714285714E+01  6.8571428571E+00
    7  2.3366981809E+05  4.1353405881E-11  1.5391935092E+06  5.3226762093E+16  1.0000000000E+07  1.3714285714E+01  6.8571428571E+00
    8  2.7517734972E+05  6.7536950933E-11  1.5391933705E+06  5.3226759168E+16  1.0000000000E+07  1.3714285714E+01  6.8571428571E+00
    9  3.2123359611E+05  1.0744006122E-10  1.5391931901E+06  5.3226755364E+16  1.0000000000E+07  1.3714285714E+01  6.8571428571E+00
   10  3.7204501992E+05  1.6691286668E-10  1.5391929588E+06  5.3226750486E+16  1.0000000000E+07  1.3714285714E+01  6.8571428571E+00
   11  4.2780463930E+05  2.5376969023E-10  1.5391926659E+06  5.3226744310E+16  1.0000000000E+07  1.3714285714E+01  6.8571428571E+00
   12  4.8870533849E+05  3.7830707828E-10  1.5391922993E+06  5.3226736581E+16  1.0000000000E+07  1.3714285714E+01  6.8571428571E+00
   13  5.5493351449E+05  5.5389316192E-10  1.5391918454E+06  5.3226727009E+16  1.0000000000E+07  1.3714285714E+01  6.8571428571E+00
   14  6.2667232757E+05  7.9767246267E-10  1.5391912887E+06  5.3226715270E+16  1.0000000000E+07  1.3714285714E+01  6.8571428571E+00
   15  7.0409973838E+05  1.1313721421E-09  1.5391906120E+06  5.3226701002E+16  1.0000000000E+07  1.3714285714E+01  6.8571428571E+00
   16  7.8738256861E+05  1.5821956342E-09  1.5391897962E+06  5.3226683800E+16  1.0000000000E+07  1.3714285714E+01  6.8571428571E+00
   17  8.7670008644E+05  2.1840158044E-09  1.5391888200E+06  5.3226663218E+16  1.0000000000E+07  1.3714285714E+01  6.8571428571E+00
   18  9.7221778133E+05  2.9784691882E-09  1.5391876602E+06  5.3226638761E+16  1.0000000000E+07  1.3714285714E+01  6.8571428571E+00
   19  1.0741025904E+06  4.0164234340E-09  1.5391862910E+06  5.3226609890E+16  1.0000000000E+07  1.3714285714E+01  6.8571428571E+00
   20  1.1825112018E+06  5.3594190905E-09  1.5391846843E+06  5.3226576012E+16  1.0000000000E+07  1.3714285714E+01  6.8571428571E+00
   21  1.2976062809E+06  7.0815842791E-09  1.5391828096E+06  5.3226536483E+16  1.0000000000E+07  1.3714285714E+01  6.8571428571E+00
   22  1.4195402479E+06  9.2713798424E-09  1.5391806338E+06  5.3226490603E+16  1.0000000000E+07  1.3714285714E+01  6.8571428571E+00
   23  1.5484664052E+06  1.2033893950E-08  1.5391781207E+06  5.3226437613E+16  1.0000000000E+07  1.3714285714E+01  6.8571428571E+00
   24  1.6845358821E+06  1.5493199995E-08  1.5391752316E+06  5.3226376694E+16  1.0000000000E+07  1.3714285714E+01  6.8571428571E+00
   25  1.8278938929E+06  1.9794872731E-08  1.5391719247E+06  5.3226306965E+16  1.0000000000E+07  1.3714285714E+01  6.8571428571E+00
   26  1.9786990700E+06  2.5109518168E-08  1.5391681547E+06  5.3226227470E+16  1.0000000000E+07  1.3714285714E+01  6.8571428571E+00
   27  2.1370843660E+06  3.1634677174E-08  1.5391638735E+06  5.3226137198E+16  1.0000000000E+07  1.3714285714E+01  6.8571428571E+00
   28  2.3031876699E+06  3.9599122837E-08  1.5391590298E+06  5.3226035064E+16  1.0000000000E+07  1.3714285714E+01  6.8571428571E+00
   29  2.4771506854E+06  4.9266752665E-08  1.5391535684E+06  5.3225919905E+16  1.0000000000E+07  1.3714285714E+01  6.8571428571E+00
   30  2.6591101446E+06  6.0940302013E-08  1.5391474307E+06  5.3225790484E+16  1.0000000000E+07  1.3714285714E+01  6.8571428571E+00
   31  2.8491995153E+06  7.4965776318E-08  1.5391405543E+06  5.3225645488E+16  1.0000000000E+07  1.3714285714E+01  6.8571428571E+00
   32  3.0475527743E+06  9.1737491816E-08  1.5391328730E+06  5.3225483519E+16  1.0000000000E+07  1.3714285714E+01  6.8571428571E+00
   33  3.2542998651E+06  1.1170289091E-07  1.5391243167E+06  5.3225303098E+16  1.0000000000E+07  1.3714285714E+01  6.8571428571E+00
   34  3.4695697205E+06  1.3536829411E-07  1.5391148111E+06  5.3225102661E+16  1.0000000000E+07  1.3714285714E+01  6.8571428571E+00
   35  3.6934922072E+06  1.6330514848E-07  1.5391042776E+06  5.3224880549E+16  1.0000000000E+07  1.3714285714E+01  6.8571428571E+00
   36  3.9261913944E+06  1.9615561515E-07  1.5390926336E+06  5.3224635019E+16  1.0000000000E+07  1.3714285714E+01  6.8571428571E+00
   37  4.1677957028E+06  2.3464074978E-07  1.5390797916E+06  5.3224364226E+16  1.0000000000E+07  1.3714285714E+01  6.8571428571E+00
   38  4.4184250807E+06  2.7956594283E-07  1.5390656598E+06  5.3224066236E+16  1.0000000000E+07  1.3714285714E+01  6.8571428571E+00
   39  4.6782011048E+06  3.3183012579E-07  1.5390501418E+06  5.3223739012E+16  1.0000000000E+07  1.3714285714E+01  6.8571428571E+00
   40  4.9472450428E+06  3.9243391856E-07  1.5390331360E+06  5.3223380415E+16  1.0000000000E+07  1.3714285714E+01  6.8571428571E+00
   41  5.2256753251E+06  4.6248791760E-07  1.5390145361E+06  5.3222988203E+16  1.0000000000E+07  1.3714285714E+01  6.8571428571E+00
   42  5.5136112070E+06  5.4322293707E-07  1.5389942306E+06  5.3222560022E+16  1.0000000000E+07  1.3714285714E+01  6.8571428571E+00
   43  5.8111667432E+06  6.3599829075E-07  1.5389721031E+06  5.3222093417E+16  1.0000000000E+07  1.3714285714E+01  6.8571428571E+00
   44  6.1184599672E+06  7.4231498881E-07  1.5389480313E+06  5.3221585809E+16  1.0000000000E+07  1.3714285714E+01  6.8571428571E+00
   45  6.4356030641E+06  8.6382383723E-07  1.5389218880E+06  5.3221034516E+16  1.0000000000E+07  1.3714285714E+01  6.8571428571E+00
   46  6.7627069595E+06  1.0023383388E-06  1.5388935404E+06  5.3220436734E+16  1.0000000000E+07  1.3714285714E+01  6.8571428571E+00
   47  7.0998871241E+06  1.1598498508E-06  1.5388628495E+06  5.3219789532E+16  1.0000000000E+07  1.3714285714E+01  6.8571428571E+00
   48  7.4472521391E+06  1.3385358078E-06  1.5388296710E+06  5.3219089866E+16  1.0000000000E+07  1.3714285714E+01  6.8571428571E+00
   49  7.8049137449E+06  1.5407780356E-06  1.5387938542E+06  5.3218334556E+16  1.0000000000E+07  1.3714285714E+01  6.8571428571E+00
   50  8.1729777490E+06  1.7691724449E-06  1.5387552429E+06  5.3217520306E+16  1.0000000000E+07  1.3714285714E+01  6.8571428571E+00
   51  8.5515544929E+06  2.0265502653E-06  1.5387136741E+06  5.3216643678E+16  1.0000000000E+07  1.3714285714E+01  6.8571428571E+00
   52  8.9407469869E+06  2.3159865015E-06  1.5386689793E+06  5.3215701114E+16  1.0000000000E+07  1.3714285714E+01  6.8571428571E+00
   53  9.3406627019E+06  2.6408245559E-06  1.5386209827E+06  5.3214688906E+16  1.0000000000E+07  1.3714285714E+01  6.8571428571E+00
   54  9.7514070143E+06  3.0046895999E-06  1.5385695024E+06  5.3213603213E+16  1.0000000000E+07  1.3714285714E+01  6.8571428571E+00
   55  1.0173086701E+07  3.4115100808E-06  1.5385143493E+06  5.3212440043E+16  1.0000000000E+07  1.3714285714E+01  6.8571428571E+00
   56  1.0605799978E+07  3.8655270972E-06  1.5384553284E+06  5.3211195284E+16  1.0000000000E+07  1.3714285714E+01  6.8571428571E+00
   57  1.1049651113E+07  4.3713284199E-06  1.5383922372E+06  5.3209864657E+16  1.0000000000E+07  1.3714285714E+01  6.8571428571E+00
   58  1.1504742423E+07  4.9338623376E-06  1.5383248661E+06  5.3208443737E+16  1.0000000000E+07  1.3714285714E+01  6.8571428571E+00
   59  1.1971171085E+07  5.5584546643E-06  1.5382529989E+06  5.3206927959E+16  1.0000000000E+07  1.3714285714E+01  6.8571428571E+00
   60  1.2449039043E+07  6.2508441204E-06  1.5381764115E+06  5.3205312591E+16  1.0000000000E+07  1.3714285714E+01  6.8571428571E+00
   61  1.2938446466E+07  7.0171986123E-06  1.5380948723E+06  5.3203592741E+16  1.0000000000E+07  1.3714285714E+01  6.8571428571E+00
   62  1.3439492749E+07  7.8641413022E-06  1.5380081424E+06  5.3201763362E+16  1.0000000000E+07  1.3714285714E+01  6.8571428571E+00
   63  1.3952268968E+07  8.7987622203E-06  1.5379159764E+06  5.3199819269E+16  1.0000000000E+07  1.3714285714E+01  6.8571428571E+00
   64  1.4476874949E+07  9.8286744674E-06  1.5378181196E+06  5.3197755082E+16  1.0000000000E+07  1.3714285714E+01  6.8571428571E+00
   65  1.5013410988E+07  1.0962030679E-05  1.5377143092E+06  5.3195565244E+16  1.0000000000E+07  1.3714285714E+01  6.8571428571E+00
   66  1.5561969705E+07  1.2207534054E-05  1.5376042756E+06  5.3193244059E+16  1.0000000000E+07  1.3714285714E+01  6.8571428571E+00
   67  1.6122645267E+07  1.3574486063E-05  1.5374877408E+06  5.3190785648E+16  1.0000000000E+07  1.3714285714E+01  6.8571428571E+00
   68  1.6695532854E+07  1.5072817957E-05  1.5373644182E+06  5.3188183950E+16  1.0000000000E+07  1.3714285714E+01  6.8571428571E+00
   69  1.7280725609E+07  1.6713115779E-05  1.5372340131E+06  5.3185432733E+16  1.0000000000E+07  1.3714285714E+01  6.8571428571E+00
   70  1.7878317070E+07  1.8506660118E-05  1.5370962223E+06  5.3182525582E+16  1.0000000000E+07  1.3714285714E+01  6.8571428571E+00
   71  1.8488397954E+07  2.0465451168E-05  1.5369507343E+06  5.3179455908E+16  1.0000000000E+07  1.3714285714E+01  6.8571428571E+00
   72  1.9111057675E+07  2.2602247585E-05  1.5367972294E+06  5.3176216942E+16  1.0000000000E+07  1.3714285714E+01  6.8571428571E+00
   73  1.9746393269E+07  2.4930636360E-05  1.5366353771E+06  5.3172801686E+16  1.0000000000E+07  1.3714285714E+01  6.8571428571E+00
   74  2.0394493763E+07  2.7465018143E-05  1.5364648396E+06  5.3169202990E+16  1.0000000000E+07  1.3714285714E+01  6.8571428571E+00
   75  2.1055446791E+07  3.0220666277E-05  1.5362852705E+06  5.3165413515E+16  1.0000000000E+07  1.3714285714E+01  6.8571428571E+00
   76  2.1729346102E+07  3.3213800779E-05  1.5360963126E+06  5.3161425692E+16  1.0000000000E+07  1.3714285714E+01  6.8571428571E+00
   77  2.2416277930E+07  3.6461573586E-05  1.5358976013E+06  5.3157231793E+16  1.0000000000E+07  1.3714285714E+01  6.8571428571E+00
   78  2.3116331116E+07  3.9982154528E-05  1.5356887620E+06  5.3152823873E+16  1.0000000000E+07  1.3714285714E+01  6.8571428571E+00
   79  2.3829594958E+07  4.3794769051E-05  1.5354694102E+06  5.3148193779E+16  1.0000000000E+07  1.3714285714E+01  6.8571428571E+00
   80  2.4556156060E+07  4.7919727890E-05  1.5352391526E+06  5.3143333167E+16  1.0000000000E+07  1.3714285714E+01  6.8571428571E+00
   81  2.5296101698E+07  5.2378491931E-05  1.5349975862E+06  5.3138233479E+16  1.0000000000E+07  1.3714285714E+01  6.8571428571E+00
   82  2.6049520751E+07  5.7193729551E-05  1.5347442973E+06  5.3132885933E+16  1.0000000000E+07  1.3714285714E+01  6.8571428571E+00
   83  2.6816500235E+07  6.2389347096E-05  1.5344788631E+06  5.3127281543E+16  1.0000000000E+07  1.3714285714E+01  6.8571428571E+00
   84  2.7597120319E+07  6.7990501707E-05  1.5342008530E+06  5.3121411159E+16  1.0000000000E+07  1.3714285714E+01  6.8571428571E+00
   85  2.8391473086E+07  7.4023787775E-05  1.5339098222E+06  5.3115265322E+16  1.0000000000E+07  1.3714285714E+01  6.8571428571E+00
   86  2.9199639051E+07  8.0517124603E-05  1.5336053199E+06  5.3108834440E+16  1.0000000000E+07  1.3714285714E+01  6.8571428571E+00
   87  3.0021707763E+07  8.7499967966E-05  1.5332868815E+06  5.3102108624E+16  1.0000000000E+07  1.3714285714E+01  6.8571428571E+00
   88  3.0857761564E+07  9.5003240595E-05  1.5329540348E+06  5.3095077818E+16  1.0000000000E+07  1.3714285714E+01  6.8571428571E+00
   89  3.1707885232E+07  1.0305946917E-04  1.5326062964E+06  5.3087731717E+16  1.0000000000E+07  1.3714285714E+01  6.8571428571E+00
   90  3.2572159031E+07  1.1170278125E-04  1.5322431740E+06  5.3080059825E+16  1.0000000000E+07  1.3714285714E+01  6.8571428571E+00
   91  3.3450671752E+07  1.2096909770E-04  1.5318641613E+06  5.3072051340E+16  1.0000000000E+07  1.3714285714E+01  6.8571428571E+00
   92  3.4343501734E+07  1.3089600550E-04  1.5314687457E+06  5.3063695316E+16  1.0000000000E+07  1.3714285714E+01  6.8571428571E+00
   93  3.5250735647E+07  1.4152301992E-04  1.5310564003E+06  5.3054980496E+16  1.0000000000E+07  1.3714285714E+01  6.8571428571E+00
   94  3.6172454941E+07  1.5289150675E-04  1.5306265897E+06  5.3045895431E+16  1.0000000000E+07  1.3714285714E+01  6.8571428571E+00
   95  3.7108742060E+07  1.6504481895E-04  1.5301787672E+06  5.3036428425E+16  1.0000000000E+07  1.3714285714E+01  6.8571428571E+00
   96  3.8059676856E+07  1.7802832121E-04  1.5297123765E+06  5.3026567562E+16  1.0000000000E+07  1.3714285714E+01  6.8571428571E+00
   97  3.9025343391E+07  1.9188955422E-04  1.5292268482E+06  5.3016300642E+16  1.0000000000E+07  1.3714285714E+01  6.8571428571E+00
   98  4.0005822974E+07  2.0667821692E-04  1.5287216033E+06  5.3005615245E+16  1.0000000000E+07  1.3714285714E+01  6.8571428571E+00
   99  4.1001198377E+07  2.2244630162E-04  1.5281960510E+06  5.2994498685E+16  1.0000000000E+07  1.3714285714E+01  6.8571428571E+00
  100  4.2011541068E+07  2.3924796037E-04  1.5276495954E+06  5.2982938158E+16  1.0000000000E+07  1.3714285714E+01  6.8571428571E+00
  101  4.3036940232E+07  2.5714005668E-04  1.5270816203E+06  5.2970920407E+16  1.0000000000E+07  1.3714285714E+01  6.8571428571E+00
  102  4.4077473873E+07  2.7618177910E-04  1.5264915040E+06  5.2958432048E+16  1.0000000000E+07  1.3714285714E+01  6.8571428571E+00
  103  4.5133225124E+07  2.9643499687E-04  1.5258786111E+06  5.2945459384E+16  1.0000000000E+07  1.3714285714E+01  6.8571428571E+00
  104  4.6204276188E+07  3.1796424280E-04  1.5252422950E+06  5.2931988467E+16  1.0000000000E+07  1.3714285714E+01  6.8571428571E+00
  105  4.7290704554E+07  3.4083671439E-04  1.5245819012E+06  5.2918005153E+16  1.0000000000E+07  1.3714285714E+01  6.8571428571E+00
  106  4.8392593065E+07  3.6512256532E-04  1.5238967603E+06  5.2903494968E+16  1.0000000000E+07  1.3714285714E+01  6.8571428571E+00
  107  4.9510003562E+07  3.9089440006E-04  1.5231862054E+06  5.2888443462E+16  1.0000000000E+07  1.3714285714E+01  6.8571428571E+00
  108  5.0643034207E+07  4.1822866618E-04  1.5224495352E+06  5.2872835439E+16  1.0000000000E+07  1.3714285714E+01  6.8571428571E+00
  109  5.1791761465E+07  4.4720444674E-04  1.5216860510E+06  5.2856655725E+16  1.0000000000E+07  1.3714285714E+01  6.8571428571E+00
  110  5.2956263232E+07  4.7790405874E-04  1.5208950421E+06  5.2839888867E+16  1.0000000000E+07  1.3714285714E+01  6.8571428571E+00
  111  5.4136624228E+07  5.1041330733E-04  1.5200757816E+06  5.2822519046E+16  1.0000000000E+07  1.3714285714E+01  6.8571428571E+00
  112  5.5332919540E+07  5.4482114037E-04  1.5192275386E+06  5.2804530317E+16  1.0000000000E+07  1.3714285714E+01  6.8571428571E+00
  113  5.6545230959E+07  5.8122018803E-04  1.5183495660E+06  5.2785906368E+16  1.0000000000E+07  1.3714285714E+01  6.8571428571E+00
  114  5.7773637528E+07  6.1970660216E-04  1.5174411078E+06  5.2766630662E+16  1.0000000000E+07  1.3714285714E+01  6.8571428571E+00
  115  5.9018218742E+07  6.6038024612E-04  1.5165013966E+06  5.2746686382E+16  1.0000000000E+07  1.3714285714E+01  6.8571428571E+00
  116  6.0279053467E+07  7.0334476203E-04  1.5155296545E+06  5.2726056457E+16  1.0000000000E+07  1.3714285714E+01  6.8571428571E+00
  117  6.1556221514E+07  7.4870772662E-04  1.5145250920E+06  5.2704723527E+16  1.0000000000E+07  1.3714285714E+01  6.8571428571E+00
  118  6.2849807307E+07  7.9658090115E-04  1.5134869052E+06  5.2682669883E+16  1.0000000000E+07  1.3714285714E+01  6.8571428571E+00
  119  6.4159886874E+07  8.4707986128E-04  1.5124142857E+06  5.2659877684E+16  1.0000000000E+07  1.3714285714E+01  6.8571428571E+00
  120  6.5486540682E+07  9.0032456442E-04  1.5113064114E+06  5.2636328744E+16  1.0000000000E+07  1.3714285714E+01  6.8571428571E+00
  121  6.6829864693E+07  9.5643996331E-04  1.5101624360E+06  5.2612004321E+16  1.0000000000E+07  1.3714285714E+01  6.8571428571E+00
  122  6.8189923752E+07  1.0155541825E-03  1.5089815290E+06  5.2586885957E+16  1.0000000000E+07  1.3714285714E+01  6.8571428571E+00
  123  6.9566801904E+07  1.0778006800E-03  1.5077628334E+06  5.2560954579E+16  1.0000000000E+07  1.3714285714E+01  6.8571428571E+00
  124  7.0960575815E+07  1.1433172519E-03  1.5065054885E+06  5.2534190980E+16  1.0000000000E+07  1.3714285714E+01  6.8571428571E+00
  125  7.2371328098E+07  1.2122467399E-03  1.5052086183E+06  5.2506575568E+16  1.0000000000E+07  1.3714285714E+01  6.8571428571E+00
  126  7.3799137896E+07  1.2847367113E-03  1.5038713399E+06  5.2478088546E+16  1.0000000000E+07  1.3714285714E+01  6.8571428571E+00
  127  7.5244088832E+07  1.3609399662E-03  1.5024927565E+06  5.2448709755E+16  1.0000000000E+07  1.3714285714E+01  6.8571428571E+00
  128  7.6706260529E+07  1.4410142219E-03  1.5010719653E+06  5.2418418848E+16  1.0000000000E+07  1.3714285714E+01  6.8571428571E+00
  129  7.8185738173E+07  1.5251227403E-03  1.4996080487E+06  5.2387195089E+16  1.0000000000E+07  1.3714285714E+01  6.8571428571E+00
  130  7.9682604140E+07  1.6134339977E-03  1.4981000826E+06  5.2355017528E+16  1.0000000000E+07  1.3714285714E+01  6.8571428571E+00
  131  8.1196941184E+07  1.7061219694E-03  1.4965471330E+06  5.2321864936E+16  1.0000000000E+07  1.3714285714E+01  6.8571428571E+00
  132  8.2728830350E+07  1.8033661131E-03  1.4949482592E+06  5.2287715855E+16  1.0000000000E+07  1.3714285714E+01  6.8571428571E+00
  133  8.4278353950E+07  1.9053516636E-03  1.4933025104E+06  5.2252548533E+16  1.0000000000E+07  1.3714285714E+01  6.8571428571E+00
  134  8.5845602567E+07  2.0122702475E-03  1.4916089185E+06  5.2216340761E+16  1.0000000000E+07  1.3714285714E+01  6.8571428571E+00
  135  8.7430656607E+07  2.1243187737E-03  1.4898665180E+06  5.2179070293E+16  1.0000000000E+07  1.3714285714E+01  6.8571428571E+00
  136  8.9033600852E+07  2.2417005056E-03  1.4880743307E+06  5.2140714523E+16  1.0000000000E+07  1.3714285714E+01  6.8571428571E+00
  137  9.0654524467E+07  2.3646252305E-03  1.4862313657E+06  5.2101250472E+16  1.0000000000E+07  1.3714285714E+01  6.8571428571E+00
  138  9.2293510820E+07  2.4933086193E-03  1.4843366312E+06  5.2060655040E+16  1.0000000000E+07  1.3714285714E+01  6.8571428571E+00
  139  9.3950647538E+07  2.6279730924E-03  1.4823891235E+06  5.2018904765E+16  1.0000000000E+07  1.3714285714E+01  6.8571428571E+00
  140  9.5626027705E+07  2.7688480924E-03  1.4803878252E+06  5.1975975784E+16  1.0000000000E+07  1.3714285714E+01  6.8571428571E+00
  141  9.7319732812E+07  2.9161687681E-03  1.4783317263E+06  5.1931844273E+16  1.0000000000E+07  1.3714285714E+01  6.8571428571E+00
  142  9.9031856710E+07  3.0701781050E-03  1.4762197958E+06  5.1886485836E+16  1.0000000000E+07  1.3714285714E+01  6.8571428571E+00
  143  1.0076248830E+08  3.2311255816E-03  1.4740510023E+06  5.1839875953E+16  1.0000000000E+07  1.3714285714E+01  6.8571428571E+00
  144  1.0251171952E+08  3.3992679847E-03  1.4718243055E+06  5.1791989770E+16  1.0000000000E+07  1.3714285714E+01  6.8571428571E+00
  145  1.0427964189E+08  3.5748692125E-03  1.4695386602E+06  5.1742802200E+16  1.0000000000E+07  1.3714285714E+01  6.8571428571E+00
  146  1.0606634856E+08  3.7582005855E-03  1.4671930141E+06  5.1692287862E+16  1.0000000000E+07  1.3714285714E+01  6.8571428571E+00
  147  1.0787193167E+08  3.9495406954E-03  1.4647863120E+06  5.1640421165E+16  1.0000000000E+07  1.3714285714E+01  6.8571428571E+00
  148  1.0969649266E+08  4.1491766282E-03  1.4623174821E+06  5.1587176006E+16  1.0000000000E+07  1.3714285714E+01  6.8571428571E+00
  149  1.1154012250E+08  4.3574019624E-03  1.4597854629E+06  5.1532526351E+16  1.0000000000E+07  1.3714285714E+01  6.8571428571E+00
  150  1.1340291906E+08  4.5745187327E-03  1.4571891804E+06  5.1476445729E+16  1.0000000000E+07  1.3714285714E+01  6.8571428571E+00
