   i     radius            mass              density           energy            temp              abar              zbar
    1  6.9599699824E+04  9.9318824447E-12  1.3989406256E+07  1.8543780054E+17  1.0000000000E+07  1.3714285714E+01  6.8571428571E+00
    2  8.2292823886E+04  1.6417058775E-11  1.3989405875E+07  1.8543779792E+17  1.0000000000E+07  1.3714285714E+01  6.8571428571E+00
    3  9.9822820912E+04  2.9302114142E-11  1.3989405243E+07  1.8543779357E+17  1.0000000000E+07  1.3714285714E+01  6.8571428571E+00
    4  1.1919179146E+05  4.9882529035E-11  1.3989404404E+07  1.8543778780E+17  1.0000000000E+07  1.3714285714E+01  6.8571428571E+00
    5  1.4094377618E+05  8.2479706861E-11  1.3989403284E+07  1.8543778011E+17  1.0000000000E+07  1.3714285714E+01  6.8571428571E+00
    6  1.6514032300E+05  1.3266878776E-10  1.3989401819E+07  1.8543777003E+17  1.0000000000E+07  1.3714285714E+01  6.8571428571E+00
    7  1.9189930284E+05  2.0817545710E-10  1.3989399929E+07  1.8543775703E+17  1.0000000000E+07  1.3714285714E+01  6.8571428571E+00
    8  2.2132956070E+05  3.1939459098E-10  1.3989397523E+07  1.8543774049E+17  1.0000000000E+07  1.3714285714E+01  6.8571428571E+00
    9  2.5353709207E+05  4.8010225859E-10  1.3989394497E+07  1.8543771968E+17  1.0000000000E+07  1.3714285714E+01  6.8571428571E+00
   10  2.8862586028E+05  7.0829615672E-10  1.3989390733E+07  1.8543769380E+17  1.0000000000E+07  1.3714285714E+01  6.8571428571E+00
   11  3.2669710815E+05  1.0271762006E-09  1.3989386098E+07  1.8543766193E+17  1.0000000000E+07  1.3714285714E+01  6.8571428571E+00
   12  3.6784971546E+05  1.4662912592E-09  1.3989380443E+07  1.8543762305E+17  1.0000000000E+07  1.3714285714E+01  6.8571428571E+00
   13  4.1217984318E+05  2.0628568610E-09  1.3989373602E+07  1.8543757601E+17  1.0000000000E+07  1.3714285714E+01  6.8571428571E+00
   14  4.5979035254E+05  2.8634411078E-09  1.3989365388E+07  1.8543751953E+17  1.0000000000E+07  1.3714285714E+01  6.8571428571E+00
   15  5.1076751571E+05  3.9253493637E-09  1.3989355599E+07  1.8543745222E+17  1.0000000000E+07  1.3714285714E+01  6.8571428571E+00
   16  5.6520286669E+05  5.3188943183E-09  1.3989344011E+07  1.8543737254E+17  1.0000000000E+07  1.3714285714E+01  6.8571428571E+00
   17  6.2318562706E+05  7.1295205439E-09  1.3989330378E+07  1.8543727880E+17  1.0000000000E+07  1.3714285714E+01  6.8571428571E+00
   18  6.8480425744E+05  9.4603476835E-09  1.3989314432E+07  1.8543716916E+17  1.0000000000E+07  1.3714285714E+01  6.8571428571E+00
   19  7.5014391376E+05  1.2434867647E-08  1.3989295882E+07  1.8543704161E+17  1.0000000000E+07  1.3714285714E+01  6.8571428571E+00
   20  8.1928940332E+05  1.6200149054E-08  1.3989274412E+07  1.8543689398E+17  1.0000000000E+07  1.3714285714E+01  6.8571428571E+00
   21  8.9232402255E+05  2.0930244002E-08  1.3989249680E+07  1.8543672392E+17  1.0000000000E+07  1.3714285714E+01  6.8571428571E+00
   22  9.6932920443E+05  2.6829952323E-08  1.3989221317E+07  1.8543652890E+17  1.0000000000E+07  1.3714285714E+01  6.8571428571E+00
   23  1.0503856851E+06  3.4139078029E-08  1.3989188928E+07  1.8543630618E+17  1.0000000000E+07  1.3714285714E+01  6.8571428571E+00
   24  1.1355643281E+06  4.3136007198E-08  1.3989152090E+07  1.8543605288E+17  1.0000000000E+07  1.3714285714E+01  6.8571428571E+00
   25  1.2249501852E+06  5.4145107985E-08  1.3989110345E+07  1.8543576585E+17  1.0000000000E+07  1.3714285714E+01  6.8571428571E+00
   26  1.3186201880E+06  6.7540181684E-08  1.3989063208E+07  1.8543544172E+17  1.0000000000E+07  1.3714285714E+01  6.8571428571E+00
   27  1.4166493936E+06  8.3750848381E-08  1.3989010159E+07  1.8543507696E+17  1.0000000000E+07  1.3714285714E+01  6.8571428571E+00
   28  1.5191122850E+06  1.0326914801E-07  1.3988950647E+07  1.8543466774E+17  1.0000000000E+07  1.3714285714E+01  6.8571428571E+00
   29  1.6260823330E+06  1.2665645272E-07  1.3988884085E+07  1.8543421006E+17  1.0000000000E+07  1.3714285714E+01  6.8571428571E+00
   30  1.7376315019E+06  1.5455084644E-07  1.3988809851E+07  1.8543369962E+17  1.0000000000E+07  1.3714285714E+01  6.8571428571E+00
   31  1.8538324100E+06  1.8767577475E-07  1.3988727287E+07  1.8543313189E+17  1.0000000000E+07  1.3714285714E+01  6.8571428571E+00
   32  1.9747546231E+06  2.2684777156E-07  1.3988635696E+07  1.8543250209E+17  1.0000000000E+07  1.3714285714E+01  6.8571428571E+00
   33  2.1004679974E+06  2.7298665613E-07  1.3988534343E+07  1.8543180517E+17  1.0000000000E+07  1.3714285714E+01  6.8571428571E+00
   34  2.2310419267E+06  3.2712544228E-07  1.3988422452E+07  1.8543103578E+17  1.0000000000E+07  1.3714285714E+01  6.8571428571E+00
   35  2.3665444495E+06  3.9042069438E-07  1.3988299206E+07  1.8543018830E+17  1.0000000000E+07  1.3714285714E+01  6.8571428571E+00
   36  2.5070419968E+06  4.6416365960E-07  1.3988163747E+07  1.8542925684E+17  1.0000000000E+07  1.3714285714E+01  6.8571428571E+00
   37  2.6526023364E+06  5.4979398474E-07  1.3988015172E+07  1.8542823518E+17  1.0000000000E+07  1.3714285714E+01  6.8571428571E+00
   38  2.8032895269E+06  6.4890986161E-07  1.3987852534E+07  1.8542711682E+17  1.0000000000E+07  1.3714285714E+01  6.8571428571E+00
   39  2.9591699268E+06  7.6328532861E-07  1.3987674840E+07  1.8542589492E+17  1.0000000000E+07  1.3714285714E+01  6.8571428571E+00
   40  3.1203057245E+06  8.9488047820E-07  1.3987481053E+07  1.8542456234E+17  1.0000000000E+07  1.3714285714E+01  6.8571428571E+00
   41  3.2867628994E+06  1.0458629746E-06  1.3987270083E+07  1.8542311159E+17  1.0000000000E+07  1.3714285714E+01  6.8571428571E+00
   42  3.4586031695E+06  1.2186180152E-06  1.3987040795E+07  1.8542153487E+17  1.0000000000E+07  1.3714285714E+01  6.8571428571E+00
   43  3.6358894763E+06  1.4157702202E-06  1.3986792002E+07  1.8541982400E+17  1.0000000000E+07  1.3714285714E+01  6.8571428571E+00
   44  3.8186834728E+06  1.6401996581E-06  1.3986522466E+07  1.8541797047E+17  1.0000000000E+07  1.3714285714E+01  6.8571428571E+00
   45  4.0070452880E+06  1.8950603844E-06  1.3986230898E+07  1.8541596540E+17  1.0000000000E+07  1.3714285714E+01  6.8571428571E+00
   46  4.2010363439E+06  2.1838044602E-06  1.3985915954E+07  1.8541379956E+17  1.0000000000E+07  1.3714285714E+01  6.8571428571E+00
   47  4.4007158614E+06  2.5101986344E-06  1.3985576236E+07  1.8541146331E+17  1.0000000000E+07  1.3714285714E+01  6.8571428571E+00
   48  4.6061438096E+06  2.8783510749E-06  1.3985210289E+07  1.8540894666E+17  1.0000000000E+07  1.3714285714E+01  6.8571428571E+00
   49  4.8173787431E+06  3.2927315542E-06  1.3984816602E+07  1.8540623919E+17  1.0000000000E+07  1.3714285714E+01  6.8571428571E+00
   50  5.0344791979E+06  3.7581985467E-06  1.3984393608E+07  1.8540333012E+17  1.0000000000E+07  1.3714285714E+01  6.8571428571E+00
   51  5.2575022137E+06  4.2800220120E-06  1.3983939678E+07  1.8540020824E+17  1.0000000000E+07  1.3714285714E+01  6.8571428571E+00
   52  5.4865060313E+06  4.8639166755E-06  1.3983453124E+07  1.8539686193E+17  1.0000000000E+07  1.3714285714E+01  6.8571428571E+00
   53  5.7215470438E+06  5.5160634831E-06  1.3982932196E+07  1.8539327914E+17  1.0000000000E+07  1.3714285714E+01  6.8571428571E+00
   54  5.9626819849E+06  6.2431446292E-06  1.3982375082E+07  1.8538944738E+17  1.0000000000E+07  1.3714285714E+01  6.8571428571E+00
   55  6.2099665959E+06  7.0523710655E-06  1.3981779907E+07  1.8538535376E+17  1.0000000000E+07  1.3714285714E+01  6.8571428571E+00
   56  6.4634564077E+06  7.9515171035E-06  1.3981144732E+07  1.8538098490E+17  1.0000000000E+07  1.3714285714E+01  6.8571428571E+00
   57  6.7232057241E+06  8.9489504965E-06  1.3980467551E+07  1.8537632699E+17  1.0000000000E+07  1.3714285714E+01  6.8571428571E+00
   58  6.9892705355E+06  1.0053678996E-05  1.3979746290E+07  1.8537136575E+17  1.0000000000E+07  1.3714285714E+01  6.8571428571E+00
   59  7.2617042915E+06  1.1275370856E-05  1.3978978810E+07  1.8536608642E+17  1.0000000000E+07  1.3714285714E+01  6.8571428571E+00
   60  7.5405613642E+06  1.2624406861E-05  1.3978162901E+07  1.8536047379E+17  1.0000000000E+07  1.3714285714E+01  6.8571428571E+00
   61  7.8258945776E+06  1.4111909147E-05  1.3977296284E+07  1.8535451213E+17  1.0000000000E+07  1.3714285714E+01  6.8571428571E+00
   62  8.1177561239E+06  1.5749785632E-05  1.3976376613E+07  1.8534818528E+17  1.0000000000E+07  1.3714285714E+01  6.8571428571E+00
   63  8.4161997694E+06  1.7550786095E-05  1.3975401462E+07  1.8534147649E+17  1.0000000000E+07  1.3714285714E+01  6.8571428571E+00
   64  8.7212782979E+06  1.9528533882E-05  1.3974368335E+07  1.8533436855E+17  1.0000000000E+07  1.3714285714E+01  6.8571428571E+00
   65  9.0330432310E+06  2.1697568962E-05  1.3973274663E+07  1.8532684375E+17  1.0000000000E+07  1.3714285714E+01  6.8571428571E+00
   66  9.3515473923E+06  2.4073413510E-05  1.3972117796E+07  1.8531888378E+17  1.0000000000E+07  1.3714285714E+01  6.8571428571E+00
   67  9.6768401292E+06  2.6672586550E-05  1.3970895022E+07  1.8531046992E+17  1.0000000000E+07  1.3714285714E+01  6.8571428571E+00
   68  1.0008972757E+07  2.9512694955E-05  1.3969603540E+07  1.8530158284E+17  1.0000000000E+07  1.3714285714E+01  6.8571428571E+00
   69  1.0347996798E+07  3.2612476561E-05  1.3968240472E+07  1.8529220265E+17  1.0000000000E+07  1.3714285714E+01  6.8571428571E+00
   70  1.0693964788E+07  3.5991865288E-05  1.3966802852E+07  1.8528230886E+17  1.0000000000E+07  1.3714285714E+01  6.8571428571E+00
   71  1.1046923730E+07  3.9671982576E-05  1.3965287657E+07  1.8527188057E+17  1.0000000000E+07  1.3714285714E+01  6.8571428571E+00
   72  1.1406924991E+07  4.3675292169E-05  1.3963691762E+07  1.8526089618E+17  1.0000000000E+07  1.3714285714E+01  6.8571428571E+00
   73  1.1774017782E+07  4.8025597721E-05  1.3962011970E+07  1.8524933357E+17  1.0000000000E+07  1.3714285714E+01  6.8571428571E+00
   74  1.2148250869E+07  5.2748121322E-05  1.3960245000E+07  1.8523717004E+17  1.0000000000E+07  1.3714285714E+01  6.8571428571E+00
   75  1.2529674916E+07  5.7869600099E-05  1.3958387479E+07  1.8522438222E+17  1.0000000000E+07  1.3714285714E+01  6.8571428571E+00
   76  1.2918336194E+07  6.3418270004E-05  1.3956435965E+07  1.8521094630E+17  1.0000000000E+07  1.3714285714E+01  6.8571428571E+00
   77  1.3314285822E+07  6.9424061169E-05  1.3954386910E+07  1.8519683768E+17  1.0000000000E+07  1.3714285714E+01  6.8571428571E+00
   78  1.3717569610E+07  7.5918524218E-05  1.3952236701E+07  1.8518203132E+17  1.0000000000E+07  1.3714285714E+01  6.8571428571E+00
   79  1.4128237150E+07  8.2935039205E-05  1.3949981619E+07  1.8516650142E+17  1.0000000000E+07  1.3714285714E+01  6.8571428571E+00
   80  1.4546335509E+07  9.0508793790E-05  1.3947617868E+07  1.8515022164E+17  1.0000000000E+07  1.3714285714E+01  6.8571428571E+00
   81  1.4971913165E+07  9.8676926845E-05  1.3945141554E+07  1.8513316494E+17  1.0000000000E+07  1.3714285714E+01  6.8571428571E+00
   82  1.5405016967E+07  1.0747855399E-04  1.3942548700E+07  1.8511530369E+17  1.0000000000E+07  1.3714285714E+01  6.8571428571E+00
   83  1.5845694861E+07  1.1695490215E-04  1.3939835234E+07  1.8509660958E+17  1.0000000000E+07  1.3714285714E+01  6.8571428571E+00
   84  1.6293992878E+07  1.2714933168E-04  1.3936996997E+07  1.8507705369E+17  1.0000000000E+07  1.3714285714E+01  6.8571428571E+00
   85  1.6749958887E+07  1.3810750513E-04  1.3934029731E+07  1.8505660636E+17  1.0000000000E+07  1.3714285714E+01  6.8571428571E+00
   86  1.7213638766E+07  1.4987739004E-04  1.3930929093E+07  1.8503523736E+17  1.0000000000E+07  1.3714285714E+01  6.8571428571E+00
   87  1.7685079773E+07  1.6250943103E-04  1.3927690637E+07  1.8501291567E+17  1.0000000000E+07  1.3714285714E+01  6.8571428571E+00
   88  1.8164328232E+07  1.7605658776E-04  1.3924309828E+07  1.8498960967E+17  1.0000000000E+07  1.3714285714E+01  6.8571428571E+00
   89  1.8651429673E+07  1.9057443032E-04  1.3920782040E+07  1.8496528706E+17  1.0000000000E+07  1.3714285714E+01  6.8571428571E+00
   90  1.9146430250E+07  2.0612127849E-04  1.3917102547E+07  1.8493991480E+17  1.0000000000E+07  1.3714285714E+01  6.8571428571E+00
   91  1.9649375674E+07  2.2275827312E-04  1.3913266529E+07  1.8491345919E+17  1.0000000000E+07  1.3714285714E+01  6.8571428571E+00
   92  2.0160312767E+07  2.4054953280E-04  1.3909269059E+07  1.8488588573E+17  1.0000000000E+07  1.3714285714E+01  6.8571428571E+00
   93  2.0679286298E+07  2.5956215264E-04  1.3905105127E+07  1.8485715931E+17  1.0000000000E+07  1.3714285714E+01  6.8571428571E+00
   94  2.1206342690E+07  2.7986644177E-04  1.3900769613E+07  1.8482724403E+17  1.0000000000E+07  1.3714285714E+01  6.8571428571E+00
   95  2.1741528073E+07  3.0153597090E-04  1.3896257299E+07  1.8479610323E+17  1.0000000000E+07  1.3714285714E+01  6.8571428571E+00
   96  2.2284886283E+07  3.2464759767E-04  1.3891562887E+07  1.8476369967E+17  1.0000000000E+07  1.3714285714E+01  6.8571428571E+00
   97  2.2836463022E+07  3.4928175032E-04  1.3886680963E+07  1.8472999525E+17  1.0000000000E+07  1.3714285714E+01  6.8571428571E+00
   98  2.3396303439E+07  3.7552245098E-04  1.3881606020E+07  1.8469495117E+17  1.0000000000E+07  1.3714285714E+01  6.8571428571E+00
   99  2.3964453490E+07  4.0345750083E-04  1.3876332440E+07  1.8465852780E+17  1.0000000000E+07  1.3714285714E+01  6.8571428571E+00
  100  2.4540964548E+07  4.3317885789E-04  1.3870854454E+07  1.8462068438E+17  1.0000000000E+07  1.3714285714E+01  6.8571428571E+00
  101  2.5125875005E+07  4.6478181612E-04  1.3865166315E+07  1.8458138026E+17  1.0000000000E+07  1.3714285714E+01  6.8571428571E+00
  102  2.5719231025E+07  4.9836617346E-04  1.3859262100E+07  1.8454057349E+17  1.0000000000E+07  1.3714285714E+01  6.8571428571E+00
  103  2.6321075422E+07  5.3403578901E-04  1.3853135822E+07  1.8449822159E+17  1.0000000000E+07  1.3714285714E+01  6.8571428571E+00
  104  2.6931454345E+07  5.7189909590E-04  1.3846781359E+07  1.8445428105E+17  1.0000000000E+07  1.3714285714E+01  6.8571428571E+00
  105  2.7550412600E+07  6.1206897480E-04  1.3840192501E+07  1.8440870771E+17  1.0000000000E+07  1.3714285714E+01  6.8571428571E+00
  106  2.8177995145E+07  6.5466297782E-04  1.3833362935E+07  1.8436145657E+17  1.0000000000E+07  1.3714285714E+01  6.8571428571E+00
  107  2.8814248448E+07  6.9980357177E-04  1.3826286234E+07  1.8431248172E+17  1.0000000000E+07  1.3714285714E+01  6.8571428571E+00
  108  2.9459218496E+07  7.4761815571E-04  1.3818955872E+07  1.8426173652E+17  1.0000000000E+07  1.3714285714E+01  6.8571428571E+00
  109  3.0112946762E+07  7.9823888257E-04  1.3811365277E+07  1.8420917385E+17  1.0000000000E+07  1.3714285714E+01  6.8571428571E+00
  110  3.0775481264E+07  8.5180364427E-04  1.3803507700E+07  1.8415474527E+17  1.0000000000E+07  1.3714285714E+01  6.8571428571E+00
  111  3.1446863978E+07  9.0845525142E-04  1.3795376367E+07  1.8409840205E+17  1.0000000000E+07  1.3714285714E+01  6.8571428571E+00
  112  3.2127141548E+07  9.6834244131E-04  1.3786964348E+07  1.8404009424E+17  1.0000000000E+07  1.3714285714E+01  6.8571428571E+00
  113  3.2816360457E+07  1.0316196662E-03  1.3778264618E+07  1.8397977108E+17  1.0000000000E+07  1.3714285714E+01  6.8571428571E+00
  114  3.3514563191E+07  1.0984468752E-03  1.3769270102E+07  1.8391738137E+17  1.0000000000E+07  1.3714285714E+01  6.8571428571E+00
  115  3.4221796438E+07  1.1689904285E-03  1.3759973578E+07  1.8385287269E+17  1.0000000000E+07  1.3714285714E+01  6.8571428571E+00
  116  3.4938105905E+07  1.2434227944E-03  1.3750367740E+07  1.8378619190E+17  1.0000000000E+07  1.3714285714E+01  6.8571428571E+00
  117  3.5663535705E+07  1.3219226257E-03  1.3740445209E+07  1.8371728519E+17  1.0000000000E+07  1.3714285714E+01  6.8571428571E+00
  118  3.6398133736E+07  1.4046755080E-03  1.3730198459E+07  1.8364609756E+17  1.0000000000E+07  1.3714285714E+01  6.8571428571E+00
  119  3.7141944205E+07  1.4918733184E-03  1.3719619923E+07  1.8357257353E+17  1.0000000000E+07  1.3714285714E+01  6.8571428571E+00
  120  3.7895012864E+07  1.5837149605E-03  1.3708701921E+07  1.8349665664E+17  1.0000000000E+07  1.3714285714E+01  6.8571428571E+00
  121  3.8657387080E+07  1.6804065794E-03  1.3697436659E+07  1.8341828947E+17  1.0000000000E+07  1.3714285714E+01  6.8571428571E+00
  122  3.9429112106E+07  1.7821612741E-03  1.3685816285E+07  1.8333741393E+17  1.0000000000E+07  1.3714285714E+01  6.8571428571E+00
  123  4.0210235320E+07  1.8891998079E-03  1.3673832826E+07  1.8325397093E+17  1.0000000000E+07  1.3714285714E+01  6.8571428571E+00
  124  4.1000803149E+07  2.0017503934E-03  1.3661478239E+07  1.8316790060E+17  1.0000000000E+07  1.3714285714E+01  6.8571428571E+00
  125  4.1800861764E+07  2.1200489476E-03  1.3648744398E+07  1.8307914232E+17  1.0000000000E+07  1.3714285714E+01  6.8571428571E+00
  126  4.2610459102E+07  2.2443395776E-03  1.3635623068E+07  1.8298763439E+17  1.0000000000E+07  1.3714285714E+01  6.8571428571E+00
  127  4.3429641277E+07  2.3748742259E-03  1.3622105963E+07  1.8289331452E+17  1.0000000000E+07  1.3714285714E+01  6.8571428571E+00
  128  4.4258458074E+07  2.5119137206E-03  1.3608184654E+07  1.8279611917E+17  1.0000000000E+07  1.3714285714E+01  6.8571428571E+00
  129  4.5096958076E+07  2.6557272160E-03  1.3593850658E+07  1.8269598408E+17  1.0000000000E+07  1.3714285714E+01  6.8571428571E+00
  130  4.5945189300E+07  2.8065924520E-03  1.3579095420E+07  1.8259284423E+17  1.0000000000E+07  1.3714285714E+01  6.8571428571E+00
  131  4.6803200607E+07  2.9647961824E-03  1.3563910302E+07  1.8248663368E+17  1.0000000000E+07  1.3714285714E+01  6.8571428571E+00
  132  4.7671040943E+07  3.1306342343E-03  1.3548286593E+07  1.8237728566E+17  1.0000000000E+07  1.3714285714E+01  6.8571428571E+00
  133  4.8548759824E+07  3.3044117915E-03  1.3532215500E+07  1.8226473249E+17  1.0000000000E+07  1.3714285714E+01  6.8571428571E+00
  134  4.9436406568E+07  3.4864434329E-03  1.3515688173E+07  1.8214890570E+17  1.0000000000E+07  1.3714285714E+01  6.8571428571E+00
  135  5.0334034006E+07  3.6770541090E-03  1.3498695629E+07  1.8202973555E+17  1.0000000000E+07  1.3714285714E+01  6.8571428571E+00
  136  5.1241691570E+07  3.8765779073E-03  1.3481228889E+07  1.8190715192E+17  1.0000000000E+07  1.3714285714E+01  6.8571428571E+00
  137  5.2159430078E+07  4.0853592115E-03  1.3463278890E+07  1.8178108371E+17  1.0000000000E+07  1.3714285714E+01  6.8571428571E+00
  138  5.3087302367E+07  4.3037530850E-03  1.3444836475E+07  1.8165145872E+17  1.0000000000E+07  1.3714285714E+01  6.8571428571E+00
  139  5.4025361066E+07  4.5321249768E-03  1.3425892441E+07  1.8151820397E+17  1.0000000000E+07  1.3714285714E+01  6.8571428571E+00
  140  5.4973657161E+07  4.7708505260E-03  1.3406437567E+07  1.8138124593E+17  1.0000000000E+07  1.3714285714E+01  6.8571428571E+00
  141  5.5932245660E+07  5.0203171638E-03  1.3386462509E+07  1.8124050971E+17  1.0000000000E+07  1.3714285714E+01  6.8571428571E+00
  142  5.6901180159E+07  5.2809229752E-03  1.3365957907E+07  1.8109591981E+17  1.0000000000E+07  1.3714285714E+01  6.8571428571E+00
  143  5.7880514977E+07  5.5530774120E-03  1.3344914351E+07  1.8094739985E+17  1.0000000000E+07  1.3714285714E+01  6.8571428571E+00
  144  5.8870310424E+07  5.8372030313E-03  1.3323322265E+07  1.8079487177E+17  1.0000000000E+07  1.3714285714E+01  6.8571428571E+00
  145  5.9870619148E+07  6.1337318330E-03  1.3301172210E+07  1.8063825788E+17  1.0000000000E+07  1.3714285714E+01  6.8571428571E+00
  146  6.0881498339E+07  6.4431088561E-03  1.3278454622E+07  1.8047747905E+17  1.0000000000E+07  1.3714285714E+01  6.8571428571E+00
  147  6.1903005062E+07  6.7657910620E-03  1.3255159918E+07  1.8031245540E+17  1.0000000000E+07  1.3714285714E+01  6.8571428571E+00
  148  6.2935197845E+07  7.1022480100E-03  1.3231278465E+07  1.8014310609E+17  1.0000000000E+07  1.3714285714E+01  6.8571428571E+00
  149  6.3978139658E+07  7.4529631051E-03  1.3206800515E+07  1.7996934878E+17  1.0000000000E+07  1.3714285714E+01  6.8571428571E+00
  150  6.5031889473E+07  7.8184310117E-03  1.3181716401E+07  1.7979110106E+17  1.0000000000E+07  1.3714285714E+01  6.8571428571E+00
